1:ItNr	2:Metric	3a:Time	3b:StepSize	4:||Gradient||	Time[ms]
0	-0.525706	0.000000	76.239860	0.004752	86.7
1	-0.527695	0.000000	76.239860	0.003823	9.1
2	-0.528743	0.000000	76.239860	0.002806	9.8
3	-0.529317	0.000000	76.239860	0.002171	9.7
4	-0.529660	0.000000	76.239860	0.001803	9.6
5	-0.529915	0.000000	76.239860	0.001938	10.3
6	-0.530240	0.000000	76.239860	0.002062	13.2
7	-0.530557	0.000000	76.239860	0.001656	11.1
8	-0.530761	0.000000	76.239860	0.001323	10.1
9	-0.530895	0.000000	76.239860	0.001062	10.9
10	-0.530973	0.000000	76.239860	0.000842	12.7
11	-0.531014	0.000000	76.239860	0.000718	9.9
12	-0.531045	0.000000	76.239860	0.000708	10.0
13	-0.531073	0.000000	76.239860	0.000693	12.2
14	-0.531102	0.000000	76.239860	0.000742	12.3
15	-0.531140	0.000000	76.239860	0.000861	12.1
16	-0.531197	0.000000	76.239860	0.001008	11.0
17	-0.531277	0.000000	76.239860	0.001180	12.5
18	-0.531384	0.000000	76.239860	0.001332	12.6
19	-0.531510	0.000000	76.239860	0.001352	9.4
20	-0.531624	0.000000	76.239860	0.001217	9.7
21	-0.531690	0.000000	76.239860	0.000939	9.2
22	-0.531727	0.000000	76.239860	0.000923	10.0
23	-0.531747	0.000000	76.239860	0.000572	10.8
24	-0.531770	0.000000	76.239860	0.000448	10.9
25	-0.531772	0.000000	76.239860	0.000546	9.3
26	-0.531791	0.000000	76.239860	0.000571	12.5
27	-0.531809	0.000000	76.239860	0.000692	9.7
28	-0.531839	0.000000	76.239860	0.001095	9.3
29	-0.531939	0.000000	76.239860	0.001680	11.1
30	-0.532154	0.000000	76.239860	0.001970	11.6
31	-0.532394	0.000000	76.239860	0.001313	12.2
32	-0.532442	0.000000	76.239860	0.000741	9.8
33	-0.532467	0.000000	76.239860	0.000579	9.2
34	-0.532483	0.000000	76.239860	0.000487	10.8
35	-0.532494	0.000000	76.239860	0.000461	11.8
36	-0.532500	0.000000	76.239860	0.000313	11.0
37	-0.532505	0.000000	76.239860	0.000244	9.3
38	-0.532507	0.000000	76.239860	0.000205	9.5
39	-0.532510	0.000000	76.239860	0.000153	11.0
40	-0.532512	0.000000	76.239860	0.000129	9.2
41	-0.532511	0.000000	76.239860	0.000104	12.2
42	-0.532512	0.000000	76.239860	0.000087	10.7
43	-0.532512	0.000000	76.239860	0.000071	10.6
44	-0.532513	0.000000	76.239860	0.000068	11.5
45	-0.532513	0.000000	76.239860	0.000062	11.9
46	-0.532513	0.000000	76.239860	0.000055	11.6
47	-0.532514	0.000000	76.239860	0.000053	9.6
48	-0.532514	0.000000	76.239860	0.000048	12.3
49	-0.532514	0.000000	76.239860	0.000044	12.7
50	-0.532514	0.000000	76.239860	0.000044	11.0
51	-0.532514	1.000000	72.774411	0.000045	10.0
52	-0.532515	2.000000	69.610307	0.000041	9.4
53	-0.532514	3.000000	66.709877	0.000036	10.2
54	-0.532515	4.000000	64.041482	0.000028	9.6
55	-0.532514	5.000000	61.578348	0.000022	12.6
56	-0.532515	4.990000	61.602041	0.000022	10.1
57	-0.532514	4.980000	61.625753	0.000023	9.2
58	-0.532515	4.970000	61.649482	0.000024	10.1
59	-0.532515	4.960000	61.673230	0.000022	9.4
60	-0.532515	4.950000	61.696996	0.000023	9.7
61	-0.532515	4.940000	61.720781	0.000022	11.5
62	-0.532515	4.930000	61.744584	0.000020	10.0
63	-0.532515	4.920000	61.768405	0.000015	9.6
64	-0.532515	4.910000	61.792244	0.000014	9.3
65	-0.532515	4.900000	61.816102	0.000014	11.4
66	-0.532515	4.890000	61.839979	0.000016	9.6
67	-0.532515	4.880000	61.863874	0.000015	10.3
68	-0.532515	4.870000	61.887787	0.000013	10.7
69	-0.532515	4.860000	61.911719	0.000014	10.5
70	-0.532515	4.850000	61.935669	0.000013	11.0
71	-0.532515	5.850000	59.628941	0.000013	9.4
72	-0.532515	6.850000	57.487865	0.000012	13.8
73	-0.532515	7.850000	55.495218	0.000011	9.5
74	-0.532515	8.850000	53.636082	0.000010	9.5
75	-0.532515	9.850000	51.897473	0.000008	11.7
76	-0.532515	10.850000	50.268039	0.000008	9.8
77	-0.532515	11.850000	48.737810	0.000008	12.5
78	-0.532515	12.850000	47.297993	0.000007	10.1
79	-0.532515	13.850000	45.940805	0.000007	9.4
80	-0.532515	14.850000	44.659332	0.000007	9.4
81	-0.532515	15.850000	43.447410	0.000006	9.6
82	-0.532515	16.850000	42.299526	0.000006	9.7
83	-0.532515	17.850000	41.210735	0.000006	9.9
84	-0.532515	18.850000	40.176589	0.000006	9.4
85	-0.532515	19.850000	39.193073	0.000006	10.1
86	-0.532515	20.850000	38.256560	0.000003	9.5
87	-0.532515	20.840000	38.265704	0.000003	10.5
88	-0.532515	20.830000	38.274852	0.000003	11.7
89	-0.532515	20.820000	38.284004	0.000006	11.1
90	-0.532515	21.820000	37.389936	0.000006	10.3
91	-0.532515	22.820000	36.536674	0.000005	9.2
92	-0.532515	23.820000	35.721487	0.000004	9.5
93	-0.532515	24.820000	34.941882	0.000003	9.3
94	-0.532515	24.810000	34.949510	0.000005	9.7
95	-0.532515	25.810000	34.202885	0.000005	10.5
96	-0.532515	26.810000	33.487493	0.000006	10.3
97	-0.532515	27.810000	32.801415	0.000004	13.4
98	-0.532515	28.810000	32.142884	0.000002	9.6
99	-0.532515	29.810000	31.510275	0.000002	11.4
100	-0.532515	29.800000	31.516477	0.000004	12.3
101	-0.532515	30.800000	30.908051	0.000004	10.7
102	-0.532515	31.800000	30.322671	0.000004	11.8
103	-0.532515	32.800000	29.759053	0.000004	9.3
104	-0.532515	33.800000	29.216005	0.000001	10.0
105	-0.532515	34.800000	28.692420	0.000002	11.6
106	-0.532515	34.790000	28.697563	0.000004	10.2
107	-0.532515	35.790000	28.192235	0.000004	13.4
108	-0.532515	36.790000	27.704396	0.000001	9.5
109	-0.532515	37.790000	27.233153	0.000002	12.5
110	-0.532515	37.780000	27.237786	0.000004	9.6
111	-0.532515	38.780000	26.782152	0.000004	14.4
112	-0.532515	39.780000	26.341511	0.000001	9.4
113	-0.532515	40.780000	25.915135	0.000002	9.2
114	-0.532515	40.770000	25.919331	0.000004	9.4
115	-0.532515	41.770000	25.506405	0.000003	12.4
116	-0.532515	42.770000	25.106430	0.000001	9.1
117	-0.532515	43.770000	24.718806	0.000001	11.5
118	-0.532515	43.760000	24.722623	0.000004	9.5
119	-0.532515	44.760000	24.346671	0.000003	11.8
120	-0.532515	45.760000	23.981981	0.000002	12.1
121	-0.532515	45.750000	23.985574	0.000004	9.0
122	-0.532515	46.750000	23.631543	0.000003	9.2
123	-0.532515	47.750000	23.287812	0.000001	10.1
124	-0.532515	48.750000	22.953936	0.000001	10.0
125	-0.532515	49.750000	22.629499	0.000001	10.9
126	-0.532515	50.750000	22.314105	0.000001	9.2
127	-0.532515	51.750000	22.007382	0.000001	12.5
128	-0.532515	52.750000	21.708977	0.000001	12.7
129	-0.532515	53.750000	21.418556	0.000001	10.2
130	-0.532515	54.750000	21.135803	0.000001	10.9
131	-0.532515	55.750000	20.860418	0.000001	10.5
132	-0.532515	56.750000	20.592116	0.000001	9.7
133	-0.532515	57.750000	20.330629	0.000001	12.0
134	-0.532515	58.750000	20.075700	0.000001	12.0
135	-0.532515	59.750000	19.827084	0.000001	9.6
136	-0.532515	60.750000	19.584551	0.000001	13.3
137	-0.532515	61.750000	19.347880	0.000001	11.4
138	-0.532515	61.740000	19.350218	0.000004	12.2
139	-0.532515	62.740000	19.119143	0.000003	9.4
140	-0.532515	63.740000	18.893522	0.000002	12.0
141	-0.532515	63.730000	18.895752	0.000004	10.8
142	-0.532515	64.730000	18.675342	0.000003	13.4
143	-0.532515	65.730000	18.460014	0.000002	11.9
144	-0.532515	65.720000	18.462143	0.000004	11.4
145	-0.532515	66.720000	18.251676	0.000002	12.4
146	-0.532515	67.720000	18.045954	0.000002	10.5
147	-0.532515	67.710000	18.047988	0.000004	13.4
148	-0.532515	68.710000	17.846807	0.000003	9.7
149	-0.532515	69.710000	17.650061	0.000002	13.8
150	-0.532515	69.700000	17.652007	0.000004	9.1
151	-0.532515	70.700000	17.459510	0.000002	9.8
152	-0.532515	71.700000	17.271166	0.000002	9.1
153	-0.532515	71.690000	17.273029	0.000004	11.8
154	-0.532515	72.690000	17.088665	0.000002	9.8
155	-0.532515	73.690000	16.908196	0.000002	10.8
156	-0.532515	73.680000	16.909982	0.000004	9.4
157	-0.532515	74.680000	16.733247	0.000003	13.0
158	-0.532515	75.680000	16.560168	0.000002	11.7
159	-0.532515	75.670000	16.561881	0.000004	9.5
160	-0.532515	76.670000	16.392311	0.000002	9.9
161	-0.532515	77.670000	16.226179	0.000002	12.2
162	-0.532515	77.660000	16.227823	0.000004	10.4
163	-0.532515	78.660000	16.064991	0.000002	9.3
164	-0.532515	79.660000	15.905395	0.000002	9.4
165	-0.532515	79.650000	15.906975	0.000004	9.1
166	-0.532515	80.650000	15.750487	0.000003	9.5
167	-0.532515	81.650000	15.597049	0.000002	10.5
168	-0.532515	81.640000	15.598568	0.000004	11.4
169	-0.532515	82.640000	15.448061	0.000002	11.3
170	-0.532515	83.640000	15.300431	0.000002	11.9
171	-0.532515	83.630000	15.301893	0.000004	10.5
172	-0.532515	84.630000	15.157030	0.000002	9.1
173	-0.532515	85.630000	15.014884	0.000002	11.9
174	-0.532515	85.620000	15.016292	0.000004	9.9
175	-0.532515	86.620000	14.876761	0.000003	10.6
176	-0.532515	87.620000	14.739800	0.000002	9.6
177	-0.532515	87.610000	14.741157	0.000004	10.6
178	-0.532515	88.610000	14.606670	0.000002	10.7
179	-0.532515	89.610000	14.474614	0.000002	9.3
180	-0.532515	89.600000	14.475923	0.000004	9.8
181	-0.532515	90.600000	14.346210	0.000002	9.2
182	-0.532515	91.600000	14.218802	0.000002	10.0
183	-0.532515	91.590000	14.220064	0.000004	13.6
184	-0.532515	92.590000	14.094877	0.000003	13.3
185	-0.532515	93.590000	13.971874	0.000002	9.6
186	-0.532515	93.580000	13.973093	0.000004	10.6
187	-0.532515	94.580000	13.852198	0.000002	11.0
188	-0.532515	95.580000	13.733377	0.000002	13.1
189	-0.532515	95.570000	13.734555	0.000003	11.6
190	-0.532515	96.570000	13.617735	0.000002	10.9
191	-0.532515	97.570000	13.502885	0.000002	12.6
192	-0.532515	97.560000	13.504024	0.000004	10.4
193	-0.532515	98.560000	13.391076	0.000002	9.9
194	-0.532515	99.560000	13.280002	0.000002	9.9
195	-0.532515	99.550000	13.281104	0.000004	12.8
196	-0.532515	100.550000	13.171839	0.000002	9.7
197	-0.532515	101.550000	13.064358	0.000002	9.7
198	-0.532515	101.540000	13.065424	0.000003	10.7
199	-0.532515	102.540000	12.959665	0.000002	9.4
200	-0.532515	103.540000	12.855605	0.000002	10.2
201	-0.532515	103.530000	12.856637	0.000001	9.7
202	-0.532515	104.530000	12.754219	0.000001	12.3
203	-0.532515	105.530000	12.653419	0.000001	10.8
204	-0.532515	106.530000	12.554199	0.000001	13.1
205	-0.532515	107.530000	12.456524	0.000001	11.3
206	-0.532515	107.520000	12.457493	0.000001	10.8
207	-0.532515	108.520000	12.361311	0.000001	9.6
208	-0.532515	109.520000	12.266603	0.000001	9.8
209	-0.532515	110.520000	12.173335	0.000001	9.5
210	-0.532515	111.520000	12.081475	0.000001	11.5
211	-0.532515	112.520000	11.990991	0.000001	9.3
212	-0.532515	113.520000	11.901851	0.000001	9.2
213	-0.532515	114.520000	11.814028	0.000001	12.0
214	-0.532515	115.520000	11.727491	0.000001	10.1
215	-0.532515	116.520000	11.642212	0.000001	8.9
216	-0.532515	117.520000	11.558165	0.000001	9.3
217	-0.532515	117.510000	11.559000	0.000001	9.2
218	-0.532515	118.510000	11.476145	0.000001	9.1
219	-0.532515	119.510000	11.394471	0.000001	8.8
220	-0.532515	120.510000	11.313950	0.000001	11.5
221	-0.532515	121.510000	11.234559	0.000001	9.2
222	-0.532515	122.510000	11.156275	0.000001	9.8
223	-0.532515	123.510000	11.079074	0.000001	9.6
224	-0.532515	124.510000	11.002935	0.000001	14.3
225	-0.532515	125.510000	10.927835	0.000001	10.1
226	-0.532515	125.500000	10.928581	0.000001	9.5
227	-0.532515	126.500000	10.854488	0.000001	12.4
228	-0.532515	127.500000	10.781394	0.000001	9.9
229	-0.532515	128.500000	10.709278	0.000001	10.1
230	-0.532515	129.500000	10.638120	0.000001	12.9
231	-0.532515	130.500000	10.567901	0.000001	16.8
232	-0.532515	131.500000	10.498604	0.000001	15.2
233	-0.532515	132.500000	10.430209	0.000001	35.6
234	-0.532515	133.500000	10.362699	0.000001	36.3
235	-0.532515	134.500000	10.296058	0.000001	24.9
236	-0.532515	135.500000	10.230269	0.000001	11.3
237	-0.532515	135.490000	10.230922	0.000001	24.4
238	-0.532515	136.490000	10.165960	0.000001	12.3
239	-0.532515	137.490000	10.101817	0.000001	11.6
240	-0.532515	138.490000	10.038479	0.000001	30.3
241	-0.532515	139.490000	9.975930	0.000001	32.7
242	-0.532515	140.490000	9.914156	0.000001	17.8
243	-0.532515	141.490000	9.853142	0.000001	9.6
244	-0.532515	142.490000	9.792875	0.000001	9.4
245	-0.532515	143.490000	9.733340	0.000001	9.8
246	-0.532515	144.490000	9.674524	0.000001	9.2
247	-0.532515	145.490000	9.616416	0.000001	9.1
248	-0.532515	145.480000	9.616993	0.000001	11.1
249	-0.532515	146.480000	9.559572	0.000001	9.8
250	-0.532515	147.480000	9.502832	0.000001	12.5
251	-0.532515	148.480000	9.446761	0.000001	9.8
252	-0.532515	149.480000	9.391348	0.000001	10.6
253	-0.532515	150.480000	9.336582	0.000001	10.7
254	-0.532515	151.480000	9.282450	0.000001	9.6
255	-0.532515	152.480000	9.228943	0.000001	12.5
256	-0.532515	153.480000	9.176049	0.000001	9.8
257	-0.532515	154.480000	9.123758	0.000001	11.9
258	-0.532515	155.480000	9.072059	0.000001	9.7
259	-0.532515	155.470000	9.072574	0.000001	10.2
260	-0.532515	156.470000	9.021452	0.000001	12.1
261	-0.532515	157.470000	8.970903	0.000001	9.9
262	-0.532515	158.470000	8.920917	0.000001	12.4
263	-0.532515	159.470000	8.871486	0.000001	9.8
264	-0.532515	160.470000	8.822599	0.000001	10.1
265	-0.532515	161.470000	8.774248	0.000001	13.6
266	-0.532515	162.470000	8.726424	0.000001	12.7
267	-0.532515	163.470000	8.679119	0.000001	11.4
268	-0.532515	164.470000	8.632324	0.000001	11.7
269	-0.532515	165.470000	8.586030	0.000001	10.3
270	-0.532515	165.460000	8.586491	0.000001	9.8
271	-0.532515	166.460000	8.540686	0.000001	9.9
272	-0.532515	167.460000	8.495368	0.000001	10.2
273	-0.532515	168.460000	8.450528	0.000001	11.3
274	-0.532515	169.460000	8.406159	0.000001	11.2
275	-0.532515	170.460000	8.362253	0.000001	11.3
276	-0.532515	171.460000	8.318804	0.000001	12.3
277	-0.532515	172.460000	8.275804	0.000001	9.8
278	-0.532515	173.460000	8.233246	0.000001	13.2
279	-0.532515	174.460000	8.191124	0.000001	14.1
280	-0.532515	175.460000	8.149430	0.000001	10.8
281	-0.532515	175.450000	8.149845	0.000001	10.9
282	-0.532515	176.450000	8.108570	0.000001	11.6
283	-0.532515	177.450000	8.067710	0.000001	11.2
284	-0.532515	178.450000	8.027260	0.000001	12.3
285	-0.532515	179.450000	7.987214	0.000001	10.0
286	-0.532515	180.450000	7.947565	0.000001	12.1
287	-0.532515	181.450000	7.908308	0.000001	10.2
288	-0.532515	182.450000	7.869437	0.000001	11.4
289	-0.532515	183.450000	7.830947	0.000001	10.2
290	-0.532515	184.450000	7.792831	0.000001	11.0
291	-0.532515	185.450000	7.755084	0.000001	10.1
292	-0.532515	185.440000	7.755459	0.000001	11.4
293	-0.532515	186.440000	7.718073	0.000001	13.3
294	-0.532515	187.440000	7.681045	0.000001	10.2
295	-0.532515	188.440000	7.644371	0.000001	10.1
296	-0.532515	189.440000	7.608045	0.000001	9.7
297	-0.532515	190.440000	7.572063	0.000001	10.2
298	-0.532515	191.440000	7.536420	0.000001	10.2
299	-0.532515	192.440000	7.501111	0.000001	12.0
300	-0.532515	193.440000	7.466131	0.000001	13.5
301	-0.532515	194.440000	7.431475	0.000001	10.2
302	-0.532515	195.440000	7.397140	0.000001	9.9
303	-0.532515	195.430000	7.397482	0.000001	9.6
304	-0.532515	196.430000	7.363460	0.000001	11.3
305	-0.532515	197.430000	7.329749	0.000001	10.6
306	-0.532515	198.430000	7.296345	0.000001	9.5
307	-0.532515	199.430000	7.263245	0.000001	13.0
308	-0.532515	200.430000	7.230443	0.000001	11.6
309	-0.532515	201.430000	7.197937	0.000001	13.5
310	-0.532515	202.430000	7.165721	0.000001	13.1
311	-0.532515	203.430000	7.133793	0.000001	10.6
312	-0.532515	204.430000	7.102147	0.000001	11.9
313	-0.532515	205.430000	7.070781	0.000001	11.1
314	-0.532515	205.420000	7.071094	0.000001	9.7
315	-0.532515	206.420000	7.040001	0.000001	12.0
316	-0.532515	207.420000	7.009181	0.000001	11.0
317	-0.532515	208.420000	6.978629	0.000001	9.5
318	-0.532515	209.420000	6.948342	0.000001	9.6
319	-0.532515	210.420000	6.918318	0.000001	9.5
320	-0.532515	211.420000	6.888551	0.000001	10.9
321	-0.532515	212.420000	6.859040	0.000001	12.6
322	-0.532515	213.420000	6.829780	0.000001	9.6
323	-0.532515	214.420000	6.800769	0.000001	10.2
324	-0.532515	215.420000	6.772003	0.000001	12.8
325	-0.532515	215.410000	6.772290	0.000001	10.3
326	-0.532515	216.410000	6.743764	0.000001	10.9
327	-0.532515	217.410000	6.715478	0.000001	9.2
328	-0.532515	218.410000	6.687428	0.000001	13.8
329	-0.532515	219.410000	6.659611	0.000001	9.9
330	-0.532515	220.410000	6.632025	0.000001	12.2
331	-0.532515	221.410000	6.604666	0.000001	12.7
332	-0.532515	222.410000	6.577532	0.000001	11.7
333	-0.532515	223.410000	6.550620	0.000001	10.6
334	-0.532515	224.410000	6.523928	0.000001	12.3
335	-0.532515	225.410000	6.497452	0.000001	10.6
336	-0.532515	225.400000	6.497715	0.000001	12.0
337	-0.532515	226.400000	6.471451	0.000001	11.3
338	-0.532515	227.400000	6.445399	0.000001	10.1
339	-0.532515	228.400000	6.419555	0.000001	10.0
340	-0.532515	229.400000	6.393918	0.000001	12.2
341	-0.532515	230.400000	6.368485	0.000001	11.6
342	-0.532515	231.400000	6.343253	0.000001	11.0
343	-0.532515	232.400000	6.318220	0.000001	12.0
344	-0.532515	233.400000	6.293385	0.000001	9.5
345	-0.532515	234.400000	6.268743	0.000001	11.9
346	-0.532515	235.400000	6.244294	0.000001	11.6
347	-0.532515	235.390000	6.244538	0.000001	12.7
348	-0.532515	236.390000	6.220277	0.000001	11.6
349	-0.532515	237.390000	6.196204	0.000001	9.6
350	-0.532515	238.390000	6.172316	0.000001	11.0
351	-0.532515	239.390000	6.148612	0.000001	9.4
352	-0.532515	240.390000	6.125089	0.000001	13.1
353	-0.532515	241.390000	6.101746	0.000001	11.8
354	-0.532515	242.390000	6.078579	0.000001	13.3
355	-0.532515	243.390000	6.055589	0.000001	9.8
356	-0.532515	244.390000	6.032771	0.000001	11.2
357	-0.532515	245.390000	6.010124	0.000001	10.9
358	-0.532515	245.380000	6.010350	0.000001	10.1
359	-0.532515	246.380000	5.987871	0.000001	11.8
360	-0.532515	247.380000	5.965560	0.000001	10.1
361	-0.532515	248.380000	5.943415	0.000001	11.6
362	-0.532515	249.380000	5.921433	0.000001	9.8
363	-0.532515	250.380000	5.899613	0.000001	13.1
364	-0.532515	251.380000	5.877954	0.000001	12.5
365	-0.532515	252.380000	5.856453	0.000001	13.7
366	-0.532515	253.380000	5.835108	0.000001	10.8
367	-0.532515	254.380000	5.813919	0.000001	9.9
368	-0.532515	255.380000	5.792883	0.000001	11.9
369	-0.532515	255.370000	5.793093	0.000001	12.6
370	-0.532515	256.370000	5.772207	0.000001	10.0
371	-0.532515	257.370000	5.751471	0.000001	12.5
372	-0.532515	258.370000	5.730884	0.000001	9.9
373	-0.532515	259.370000	5.710444	0.000001	12.0
374	-0.532515	260.370000	5.690148	0.000001	11.1
375	-0.532515	261.370000	5.669997	0.000001	11.9
376	-0.532515	262.370000	5.649988	0.000001	11.6
377	-0.532515	263.370000	5.630119	0.000001	12.3
378	-0.532515	264.370000	5.610390	0.000001	10.2
379	-0.532515	265.370000	5.590799	0.000001	13.0
380	-0.532515	265.360000	5.590994	0.000001	10.9
381	-0.532515	266.360000	5.571538	0.000001	9.9
382	-0.532515	267.360000	5.552216	0.000001	12.7
383	-0.532515	268.360000	5.533028	0.000001	10.8
384	-0.532515	269.360000	5.513972	0.000001	11.9
385	-0.532515	270.360000	5.495048	0.000001	9.8
386	-0.532515	271.360000	5.476252	0.000001	10.3
387	-0.532515	272.360000	5.457585	0.000001	11.1
388	-0.532515	273.360000	5.439044	0.000001	12.0
389	-0.532515	274.360000	5.420629	0.000001	9.8
390	-0.532515	275.360000	5.402339	0.000001	10.3
391	-0.532515	275.350000	5.402521	0.000001	10.2
392	-0.532515	276.350000	5.384352	0.000001	11.8
393	-0.532515	277.350000	5.366305	0.000001	11.7
394	-0.532515	278.350000	5.348378	0.000001	11.5
395	-0.532515	279.350000	5.330571	0.000001	13.1
396	-0.532515	280.350000	5.312882	0.000001	10.9
397	-0.532515	281.350000	5.295310	0.000001	12.9
398	-0.532515	282.350000	5.277854	0.000001	10.1
399	-0.532515	283.350000	5.260513	0.000001	11.8
400	-0.532515	284.350000	5.243285	0.000001	13.3
401	-0.532515	285.350000	5.226170	0.000001	9.6
402	-0.532515	285.340000	5.226340	0.000001	13.1
403	-0.532515	286.340000	5.209335	0.000001	10.8
404	-0.532515	287.340000	5.192440	0.000001	11.3
405	-0.532515	288.340000	5.175655	0.000001	12.8
406	-0.532515	289.340000	5.158977	0.000001	10.7
407	-0.532515	290.340000	5.142407	0.000001	14.4
408	-0.532515	291.340000	5.125943	0.000001	11.6
409	-0.532515	292.340000	5.109584	0.000001	11.7
410	-0.532515	293.340000	5.093329	0.000001	11.5
411	-0.532515	294.340000	5.077177	0.000001	9.7
412	-0.532515	295.340000	5.061127	0.000001	13.5
413	-0.532515	296.340000	5.045179	0.000001	11.3
414	-0.532515	297.340000	5.029330	0.000001	10.8
415	-0.532515	297.330000	5.029488	0.000001	10.9
416	-0.532515	298.330000	5.013738	0.000001	12.6
417	-0.532515	299.330000	4.998087	0.000001	11.3
418	-0.532515	300.330000	4.982532	0.000001	11.4
419	-0.532515	301.330000	4.967074	0.000001	13.2
420	-0.532515	302.330000	4.951712	0.000001	11.3
