1:ItNr	2:Metric	3a:Time	3b:StepSize	4:||Gradient||	Time[ms]
0	-0.477761	0.000000	31.660370	0.012797	9.7
1	-0.482902	0.000000	31.660370	0.012566	1.1
2	-0.487777	0.000000	31.660370	0.011794	1.1
3	-0.491944	0.000000	31.660370	0.010546	1.1
4	-0.495333	0.000000	31.660370	0.009843	1.2
5	-0.498348	0.000000	31.660370	0.009803	1.1
6	-0.501809	0.000000	31.660370	0.011244	1.1
7	-0.506105	0.000000	31.660370	0.013281	1.1
8	-0.512358	0.000000	31.660370	0.016293	1.1
9	-0.521574	0.000000	31.660370	0.019422	1.1
10	-0.534738	0.000000	31.660370	0.023468	1.1
11	-0.553778	0.000000	31.660370	0.027287	1.1
12	-0.571041	0.000000	31.660370	0.025729	1.1
13	-0.584515	0.000000	31.660370	0.021909	1.1
14	-0.594679	0.000000	31.660370	0.019510	1.1
15	-0.602617	0.000000	31.660370	0.017614	1.1
16	-0.609316	0.000000	31.660370	0.016272	1.1
17	-0.617586	0.000000	31.660370	0.015773	1.1
18	-0.625473	0.000000	31.660370	0.015784	1.0
19	-0.632942	0.000000	31.660370	0.013966	1.1
20	-0.639037	0.000000	31.660370	0.013368	1.1
21	-0.643842	0.000000	31.660370	0.010480	1.1
22	-0.647230	0.000000	31.660370	0.009871	1.1
23	-0.650337	0.000000	31.660370	0.009477	1.1
24	-0.653056	0.000000	31.660370	0.009233	1.1
25	-0.655726	0.000000	31.660370	0.008549	1.1
26	-0.657984	0.000000	31.660370	0.008345	1.0
27	-0.660125	0.000000	31.660370	0.007831	1.1
28	-0.662037	0.000000	31.660370	0.007598	1.2
29	-0.663786	0.000000	31.660370	0.007051	1.1
30	-0.665326	0.000000	31.660370	0.006733	1.1
31	-0.666727	0.000000	31.660370	0.006421	1.1
32	-0.668006	0.000000	31.660370	0.006169	1.1
33	-0.669191	0.000000	31.660370	0.005979	1.1
34	-0.670308	0.000000	31.660370	0.005829	1.1
35	-0.671371	0.000000	31.660370	0.005684	1.1
36	-0.672380	0.000000	31.660370	0.005532	1.1
37	-0.673336	0.000000	31.660370	0.005379	1.1
38	-0.674240	0.000000	31.660370	0.005243	1.2
39	-0.675100	0.000000	31.660370	0.005118	1.1
40	-0.675918	0.000000	31.660370	0.004970	1.1
41	-0.676686	0.000000	31.660370	0.004798	1.2
42	-0.677401	0.000000	31.660370	0.004611	1.1
43	-0.678060	0.000000	31.660370	0.004405	1.1
44	-0.678658	0.000000	31.660370	0.004170	1.1
45	-0.679192	0.000000	31.660370	0.003907	1.1
46	-0.679654	0.000000	31.660370	0.003580	1.1
47	-0.680044	0.000000	31.660370	0.003310	1.2
48	-0.680377	0.000000	31.660370	0.003053	1.0
49	-0.680661	0.000000	31.660370	0.002821	1.1
50	-0.680914	0.000000	31.660370	0.002824	1.1
51	-0.681190	0.000000	31.660370	0.003481	1.0
52	-0.681555	0.000000	31.660370	0.003134	1.1
53	-0.681850	0.000000	31.660370	0.002827	1.1
54	-0.682081	0.000000	31.660370	0.002258	1.1
55	-0.682271	0.000000	31.660370	0.002792	1.1
56	-0.683113	0.000000	31.660370	0.002499	1.2
57	-0.683300	0.000000	31.660370	0.002237	1.1
58	-0.683449	0.000000	31.660370	0.001961	1.1
59	-0.683564	0.000000	31.660370	0.001761	1.1
60	-0.684268	0.000000	31.660370	0.001620	1.1
61	-0.684346	0.000000	31.660370	0.001447	1.1
62	-0.684409	0.000000	31.660370	0.001320	1.0
63	-0.684462	0.000000	31.660370	0.001209	1.1
64	-0.684506	0.000000	31.660370	0.001112	1.0
65	-0.684544	0.000000	31.660370	0.001028	1.1
66	-0.684576	0.000000	31.660370	0.000958	1.1
67	-0.685215	0.000000	31.660370	0.000793	1.1
68	-0.685234	0.000000	31.660370	0.000747	1.1
69	-0.685864	0.000000	31.660370	0.000728	1.1
70	-0.685879	0.000000	31.660370	0.000680	1.1
71	-0.685891	0.000000	31.660370	0.000688	1.1
72	-0.685903	0.000000	31.660370	0.000639	1.1
73	-0.685915	0.000000	31.660370	0.000652	1.1
74	-0.685924	0.000000	31.660370	0.000605	1.0
75	-0.685935	0.000000	31.660370	0.000575	1.0
76	-0.685943	0.000000	31.660370	0.000621	1.2
77	-0.685952	0.000000	31.660370	0.000552	1.1
78	-0.685961	0.000000	31.660370	0.000590	1.1
79	-0.685967	0.000000	31.660370	0.000973	1.1
80	-0.686609	0.000000	31.660370	0.000877	1.1
81	-0.686632	0.000000	31.660370	0.000795	1.1
82	-0.686650	0.000000	31.660370	0.000644	1.1
83	-0.687281	0.000000	31.660370	0.000804	1.1
84	-0.687300	0.000000	31.660370	0.000745	1.1
85	-0.687317	0.000000	31.660370	0.000689	1.1
86	-0.687332	0.000000	31.660370	0.000645	1.1
87	-0.687345	0.000000	31.660370	0.000608	1.1
88	-0.687356	0.000000	31.660370	0.000576	1.2
89	-0.687366	0.000000	31.660370	0.000548	1.1
90	-0.687990	0.000000	31.660370	0.000524	1.1
91	-0.687999	0.000000	31.660370	0.000541	1.0
92	-0.688008	0.000000	31.660370	0.000551	1.2
93	-0.688018	0.000000	31.660370	0.000626	1.1
94	-0.688031	0.000000	31.660370	0.000599	1.0
95	-0.688042	0.000000	31.660370	0.000576	1.1
96	-0.688667	0.000000	31.660370	0.000556	1.1
97	-0.688677	0.000000	31.660370	0.000537	1.1
98	-0.688686	0.000000	31.660370	0.000524	2.0
99	-0.688695	0.000000	31.660370	0.000504	1.2
100	-0.688702	0.000000	31.660370	0.000488	1.1
101	-0.688710	0.000000	31.660370	0.000473	1.1
102	-0.688717	0.000000	31.660370	0.000459	1.1
103	-0.689339	0.000000	31.660370	0.000446	1.1
104	-0.689346	0.000000	31.660370	0.000432	1.1
105	-0.689352	0.000000	31.660370	0.000419	1.1
106	-0.689357	0.000000	31.660370	0.000406	1.1
107	-0.689979	0.000000	31.660370	0.000370	1.1
108	-0.689983	0.000000	31.660370	0.000337	1.1
109	-0.689986	0.000000	31.660370	0.000326	1.1
110	-0.689990	0.000000	31.660370	0.000326	1.1
111	-0.689993	0.000000	31.660370	0.000309	1.1
112	-0.689996	0.000000	31.660370	0.000304	1.0
113	-0.689999	0.000000	31.660370	0.000295	1.1
114	-0.690001	0.000000	31.660370	0.000286	1.1
115	-0.690004	0.000000	31.660370	0.000278	1.1
116	-0.690624	0.000000	31.660370	0.000269	1.1
117	-0.690626	0.000000	31.660370	0.000261	1.1
118	-0.690628	0.000000	31.660370	0.000254	1.1
119	-0.690630	0.000000	31.660370	0.000246	1.0
120	-0.690632	0.000000	31.660370	0.000239	1.1
121	-0.690634	0.000000	31.660370	0.000235	1.1
122	-0.690635	0.000000	31.660370	0.000231	1.1
123	-0.690637	0.000000	31.660370	0.000223	1.0
124	-0.690639	0.000000	31.660370	0.000217	1.1
125	-0.690640	0.000000	31.660370	0.000210	1.1
126	-0.691259	0.000000	31.660370	0.000204	1.1
127	-0.691260	0.000000	31.660370	0.000183	1.1
128	-0.691261	0.000000	31.660370	0.000178	1.2
129	-0.691262	0.000000	31.660370	0.000172	1.1
130	-0.691263	0.000000	31.660370	0.000167	1.1
131	-0.691264	0.000000	31.660370	0.000162	1.1
132	-0.691265	0.000000	31.660370	0.000157	1.1
133	-0.691265	0.000000	31.660370	0.000132	1.1
134	-0.691266	0.000000	31.660370	0.000121	1.0
135	-0.691266	0.000000	31.660370	0.000112	1.0
136	-0.691267	0.000000	31.660370	0.000105	1.0
137	-0.691267	0.000000	31.660370	0.000099	1.1
138	-0.691267	0.000000	31.660370	0.000094	1.1
139	-0.691268	0.000000	31.660370	0.000090	1.1
140	-0.691268	0.000000	31.660370	0.000086	1.1
141	-0.691268	0.000000	31.660370	0.000083	1.1
142	-0.691268	0.000000	31.660370	0.000080	1.0
143	-0.691269	0.000000	31.660370	0.000077	1.1
144	-0.691269	0.000000	31.660370	0.000075	1.1
145	-0.691269	0.000000	31.660370	0.000072	1.1
146	-0.691269	0.000000	31.660370	0.000070	1.1
147	-0.691269	0.000000	31.660370	0.000068	1.2
148	-0.691269	0.000000	31.660370	0.000059	1.1
149	-0.691270	0.000000	31.660370	0.000058	1.2
150	-0.691270	0.000000	31.660370	0.000056	1.1
151	-0.691270	0.000000	31.660370	0.000054	1.1
152	-0.691270	0.000000	31.660370	0.000053	1.1
153	-0.691270	0.000000	31.660370	0.000284	1.1
154	-0.691272	0.000000	31.660370	0.000325	1.1
155	-0.691276	0.000000	31.660370	0.000308	1.1
156	-0.691279	0.000000	31.660370	0.000272	1.1
157	-0.691281	0.000000	31.660370	0.000255	1.0
158	-0.691283	0.000000	31.660370	0.000241	1.0
159	-0.691285	0.000000	31.660370	0.000229	1.0
160	-0.691286	0.000000	31.660370	0.000220	1.1
161	-0.691906	0.000000	31.660370	0.000209	1.1
162	-0.691907	0.000000	31.660370	0.000201	1.1
163	-0.691909	0.000000	31.660370	0.000277	1.1
164	-0.691911	0.000000	31.660370	0.000164	1.1
165	-0.691911	0.000000	31.660370	0.000150	1.2
166	-0.691912	0.000000	31.660370	0.000138	1.2
167	-0.691913	0.000000	31.660370	0.000128	1.1
168	-0.691913	0.000000	31.660370	0.000120	1.1
169	-0.691914	0.000000	31.660370	0.000113	1.1
170	-0.691914	0.000000	31.660370	0.000107	1.1
171	-0.691914	0.000000	31.660370	0.000102	1.1
172	-0.691915	0.000000	31.660370	0.000097	1.2
173	-0.691915	0.000000	31.660370	0.000093	1.2
174	-0.691915	0.000000	31.660370	0.000089	1.0
175	-0.691915	0.000000	31.660370	0.000085	1.1
176	-0.691916	0.000000	31.660370	0.000082	1.1
177	-0.691916	0.000000	31.660370	0.000079	1.1
178	-0.691916	0.000000	31.660370	0.000076	1.1
179	-0.691916	0.000000	31.660370	0.000074	1.1
180	-0.691916	0.000000	31.660370	0.000071	1.1
181	-0.691916	0.000000	31.660370	0.000285	1.1
182	-0.691916	1.000000	30.221262	0.000310	1.1
183	-0.691916	2.000000	28.907294	0.000281	1.2
184	-0.692535	3.000000	27.702823	0.000078	1.1
185	-0.692535	4.000000	26.594710	0.000073	1.1
186	-0.692535	3.990000	26.605353	0.000069	1.0
187	-0.692536	3.980000	26.616003	0.000066	1.1
188	-0.692536	3.970000	26.626662	0.000063	1.1
189	-0.692536	3.960000	26.637330	0.000265	1.1
190	-0.692535	4.960000	25.611239	0.000077	1.1
191	-0.692536	5.960000	24.661267	0.000072	1.1
192	-0.692536	5.950000	24.670418	0.000068	1.1
193	-0.692536	5.940000	24.679575	0.000065	1.1
194	-0.692536	5.930000	24.688740	0.000062	1.1
195	-0.692536	5.920000	24.697911	0.000795	1.1
196	-0.692551	5.910000	24.707089	0.000749	1.2
197	-0.692562	5.900000	24.716274	0.000625	1.1
198	-0.692571	5.890000	24.725465	0.000530	1.1
199	-0.692578	5.880000	24.734664	0.000569	1.0
200	-0.692586	5.870000	24.743869	0.000494	1.1
201	-0.692591	5.860000	24.753081	0.000505	1.1
202	-0.692596	5.850000	24.762300	0.000409	1.2
203	-0.692600	5.840000	24.771526	0.000374	1.1
204	-0.692603	5.830000	24.780759	0.000344	1.1
205	-0.692606	5.820000	24.789998	0.000394	1.1
206	-0.692608	5.810000	24.799245	0.000303	1.1
207	-0.692610	5.800000	24.808498	0.000283	1.1
208	-0.692612	5.790000	24.817759	0.000264	1.1
209	-0.692613	5.780000	24.827026	0.000346	1.1
210	-0.692614	5.770000	24.836300	0.000244	1.1
211	-0.692616	5.760000	24.845581	0.000229	1.1
212	-0.692617	5.750000	24.854870	0.000216	1.1
213	-0.692618	5.740000	24.864165	0.000205	1.1
214	-0.692619	5.730000	24.873467	0.000324	1.1
215	-0.692620	5.720000	24.882775	0.000196	1.1
216	-0.692621	5.710000	24.892091	0.000186	1.1
217	-0.692622	5.700000	24.901414	0.000176	1.1
218	-0.692622	5.690000	24.910744	0.000168	1.1
219	-0.692623	5.680000	24.920081	0.000160	1.0
220	-0.692624	5.670000	24.929425	0.000154	1.2
221	-0.692624	5.660000	24.938776	0.000318	1.1
222	-0.692625	5.650000	24.948134	0.000153	1.1
223	-0.692625	5.640000	24.957498	0.000145	1.0
224	-0.692626	5.630000	24.966870	0.000139	1.1
225	-0.692626	5.620000	24.976249	0.000133	1.1
226	-0.692627	5.610000	24.985635	0.000128	1.1
227	-0.692627	5.600000	24.995029	0.000113	1.1
228	-0.692627	5.590000	25.004429	0.000110	1.1
229	-0.692628	5.580000	25.013836	0.000106	1.1
230	-0.692628	5.570000	25.023250	0.000103	1.1
231	-0.692628	5.560000	25.032672	0.000100	1.0
232	-0.692628	5.550000	25.042100	0.000108	1.1
233	-0.692629	5.540000	25.051536	0.000105	1.1
234	-0.693248	5.530000	25.060979	0.000100	1.1
235	-0.693248	5.520000	25.070428	0.000098	1.1
236	-0.693249	5.510000	25.079885	0.000095	1.1
237	-0.693249	5.500000	25.089349	0.000209	1.1
238	-0.693870	5.490000	25.098821	0.000198	1.1
239	-0.693870	5.480000	25.108299	0.000288	1.1
240	-0.693871	5.470000	25.117785	0.000186	1.1
241	-0.693872	5.460000	25.127277	0.000179	1.1
242	-0.693872	5.450000	25.136777	0.000173	1.1
243	-0.693873	5.440000	25.146284	0.000283	1.1
244	-0.693873	5.430000	25.155799	0.000174	1.1
245	-0.693874	5.420000	25.165320	0.000168	1.1
246	-0.693875	5.410000	25.174849	0.000162	1.1
247	-0.693875	5.400000	25.184385	0.000278	1.1
248	-0.693875	5.390000	25.193928	0.000164	1.0
249	-0.693876	6.390000	24.274106	0.000158	1.1
250	-0.693877	6.380000	24.282972	0.000152	1.1
251	-0.693877	6.370000	24.291844	0.000273	1.2
252	-0.693877	6.360000	24.300722	0.000155	1.1
253	-0.693878	7.360000	23.443856	0.000149	1.1
254	-0.693878	7.350000	23.452126	0.000144	1.1
255	-0.693878	7.340000	23.460401	0.000269	1.1
256	-0.693879	8.340000	22.660796	0.000148	1.1
257	-0.693879	9.340000	21.913901	0.000142	1.1
258	-0.693880	9.330000	21.921126	0.000138	1.1
259	-0.693880	9.320000	21.928356	0.000323	1.1
260	-0.693880	10.320000	21.228217	0.000139	1.1
261	-0.693880	11.320000	20.571403	0.000135	1.1
262	-0.693881	11.310000	20.577770	0.000132	1.1
263	-0.693881	11.300000	20.584141	0.000267	1.1
264	-0.693881	12.300000	19.965999	0.000135	1.0
265	-0.693881	13.300000	19.383900	0.000253	1.1
266	-0.693881	13.290000	19.389553	0.000129	1.1
267	-0.693882	13.280000	19.395209	0.000270	1.1
268	-0.693882	14.280000	18.845458	0.000131	1.2
269	-0.693882	15.280000	18.326013	0.000127	1.1
270	-0.693882	15.270000	18.331066	0.000239	1.1
271	-0.693882	15.260000	18.336121	0.000125	1.1
272	-0.693882	15.250000	18.341180	0.000272	1.1
273	-0.693882	16.250000	17.848799	0.000126	1.1
274	-0.693883	17.250000	17.382164	0.000122	1.1
275	-0.693883	17.240000	17.386709	0.000231	1.1
276	-0.693883	17.230000	17.391257	0.000272	1.1
277	-0.693883	18.230000	16.947942	0.000125	1.1
278	-0.693883	19.230000	16.526666	0.000121	1.1
279	-0.693883	19.220000	16.530775	0.000225	1.2
280	-0.693883	19.210000	16.534886	0.000122	1.1
281	-0.693883	20.210000	16.133651	0.000272	1.1
282	-0.693884	21.210000	15.751428	0.000221	1.0
283	-0.693884	22.210000	15.386896	0.000124	1.1
284	-0.693884	23.210000	15.038855	0.000120	1.1
285	-0.693884	23.200000	15.042257	0.000269	1.1
286	-0.693884	24.200000	14.709464	0.000219	1.1
287	-0.693884	25.200000	14.391077	0.000122	1.1
288	-0.693884	26.200000	14.086181	0.000119	1.1
289	-0.693884	26.190000	14.089166	0.000116	1.1
290	-0.693884	26.180000	14.092153	0.000290	1.1
291	-0.693884	27.180000	13.799663	0.000122	1.1
292	-0.693884	28.180000	13.519068	0.000118	1.1
293	-0.693884	28.170000	13.521817	0.000205	1.1
294	-0.693885	29.170000	13.252297	0.000120	1.1
295	-0.693885	30.170000	12.993312	0.000273	1.0
296	-0.693885	31.170000	12.744255	0.000205	1.0
297	-0.693885	32.170000	12.504566	0.000121	1.0
298	-0.693885	33.170000	12.273726	0.000118	1.0
299	-0.693885	33.160000	12.275993	0.000195	1.1
300	-0.693885	34.160000	12.053440	0.000278	1.1
301	-0.693885	35.160000	11.838813	0.000119	1.1
302	-0.693885	36.160000	11.631696	0.000196	1.1
303	-0.693885	37.160000	11.431702	0.000121	1.1
304	-0.693885	38.160000	11.238468	0.000273	1.2
305	-0.693885	39.160000	11.051658	0.000198	1.1
306	-0.693885	40.160000	10.870957	0.000121	1.1
307	-0.693885	41.160000	10.696071	0.000118	1.0
308	-0.693885	41.150000	10.697792	0.000190	1.1
309	-0.693885	42.150000	10.528389	0.000276	1.1
310	-0.693885	43.150000	10.364267	0.000190	1.1
311	-0.693885	44.150000	10.205184	0.000123	1.1
312	-0.693885	45.150000	10.050911	0.000120	1.1
313	-0.693886	45.140000	10.052431	0.000184	1.1
314	-0.693885	46.140000	9.902707	0.000279	1.1
315	-0.693885	47.140000	9.757378	0.000121	1.0
316	-0.693885	48.140000	9.616253	0.000186	1.0
317	-0.693886	49.140000	9.479153	0.000122	1.1
318	-0.693886	50.140000	9.345906	0.000119	1.1
319	-0.693886	50.130000	9.347220	0.000277	1.1
320	-0.693886	51.130000	9.217631	0.000122	1.1
321	-0.693886	52.130000	9.091587	0.000182	1.0
322	-0.693886	53.130000	8.968943	0.000123	1.1
323	-0.693886	54.130000	8.849564	0.000275	1.1
324	-0.693886	55.130000	8.733321	0.000185	1.1
325	-0.693886	56.130000	8.620093	0.000123	1.1
326	-0.693886	57.130000	8.509763	0.000178	1.1
327	-0.693886	58.130000	8.402221	0.000124	1.1
328	-0.693886	59.130000	8.297364	0.000276	1.0
329	-0.693886	60.130000	8.195091	0.000181	1.0
330	-0.693886	61.130000	8.095309	0.000123	1.1
331	-0.693886	62.130000	7.997928	0.000121	1.1
332	-0.693886	62.120000	7.998890	0.000177	1.1
333	-0.693886	63.120000	7.903801	0.000278	1.1
334	-0.693886	64.120000	7.810946	0.000178	1.1
335	-0.693886	65.120000	7.720248	0.000124	1.1
336	-0.693886	66.120000	7.631632	0.000121	1.1
337	-0.693886	66.110000	7.632508	0.000175	1.1
338	-0.693886	67.110000	7.545883	0.000278	1.1
339	-0.693886	68.110000	7.461203	0.000176	1.1
340	-0.693886	69.110000	7.378402	0.000124	1.1
341	-0.693886	70.110000	7.297418	0.000170	1.1
342	-0.693886	71.110000	7.218193	0.000125	1.1
343	-0.693886	72.110000	7.140670	0.000279	1.1
344	-0.693886	72.100000	7.141437	0.000174	1.1
345	-0.693886	73.100000	7.065545	0.000125	1.1
346	-0.693886	74.100000	6.991249	0.000169	1.1
347	-0.693886	75.100000	6.918499	0.000280	1.1
348	-0.693886	76.100000	6.847248	0.000170	1.1
349	-0.693886	77.100000	6.777449	0.000127	1.1
350	-0.693886	78.100000	6.709059	0.000124	1.1
351	-0.693886	78.090000	6.709736	0.000169	1.1
352	-0.693886	79.090000	6.642699	0.000280	1.1
353	-0.693886	80.090000	6.576988	0.000170	1.1
354	-0.693886	81.090000	6.512565	0.000127	1.1
355	-0.693886	82.090000	6.449391	0.000124	1.2
356	-0.693886	82.080000	6.450017	0.000168	1.1
357	-0.693886	83.080000	6.388045	0.000280	1.1
358	-0.693886	84.080000	6.327253	0.000169	1.1
359	-0.693886	85.080000	6.267607	0.000126	1.1
360	-0.693886	86.080000	6.209075	0.000165	1.0
361	-0.693886	87.080000	6.151626	0.000127	1.1
362	-0.693886	88.080000	6.095231	0.000279	1.0
363	-0.693886	88.070000	6.095789	0.000169	1.1
364	-0.693886	89.070000	6.040408	0.000126	1.1
365	-0.693886	90.070000	5.986025	0.000165	1.1
366	-0.693886	91.070000	5.932611	0.000127	1.0
367	-0.693886	92.070000	5.880143	0.000267	1.1
368	-0.693886	93.070000	5.828594	0.000128	1.0
369	-0.693886	94.070000	5.777942	0.000163	1.0
370	-0.693886	95.070000	5.728162	0.000128	1.1
371	-0.693887	96.070000	5.679233	0.000126	1.1
372	-0.693886	96.060000	5.679718	0.000267	1.1
373	-0.693886	97.060000	5.631609	0.000127	1.0
374	-0.693886	98.060000	5.584308	0.000163	1.1
375	-0.693887	99.060000	5.537796	0.000128	1.1
376	-0.693887	100.060000	5.492052	0.000160	1.1
377	-0.693886	101.060000	5.447057	0.000283	1.1
378	-0.693887	102.060000	5.402793	0.000162	1.0
379	-0.693887	103.060000	5.359244	0.000129	1.1
380	-0.693887	104.060000	5.316390	0.000127	1.0
381	-0.693887	104.050000	5.316815	0.000161	1.1
382	-0.693887	105.050000	5.274635	0.000282	1.0
383	-0.693887	106.050000	5.233119	0.000162	1.1
384	-0.693887	107.050000	5.192251	0.000128	1.1
385	-0.693887	108.050000	5.152017	0.000159	1.1
386	-0.693887	109.050000	5.112401	0.000129	1.1
387	-0.693887	110.050000	5.073390	0.000265	1.1
388	-0.693887	111.050000	5.034970	0.000129	1.1
389	-0.693887	112.050000	4.997127	0.000158	1.1
390	-0.693887	113.050000	4.959849	0.000130	1.1
391	-0.693887	114.050000	4.923123	0.000128	1.1
392	-0.693887	114.040000	4.923488	0.000265	1.1
393	-0.693887	115.040000	4.887296	0.000157	1.1
394	-0.693887	115.030000	4.887655	0.000131	1.1
395	-0.693887	116.030000	4.851987	0.000129	1.1
396	-0.693887	116.020000	4.852341	0.000157	1.1
397	-0.693887	117.020000	4.817184	0.000283	1.1
398	-0.693887	118.020000	4.782533	0.000158	1.0
399	-0.693887	119.020000	4.748377	0.000130	1.1
400	-0.693887	120.020000	4.714705	0.000156	1.1
401	-0.693887	121.020000	4.681508	0.000283	1.1
402	-0.693887	122.020000	4.648775	0.000157	1.0
403	-0.693887	123.020000	4.616496	0.000131	1.0
404	-0.694507	124.020000	4.584663	0.000151	1.1
405	-0.694507	125.020000	4.553265	0.000132	1.0
406	-0.694507	126.020000	4.522295	0.000149	1.1
407	-0.694507	127.020000	4.491743	0.000290	1.0
408	-0.694507	128.020000	4.461601	0.000151	1.1
409	-0.694507	129.020000	4.431861	0.000133	1.0
410	-0.694507	130.020000	4.402515	0.000149	1.0
411	-0.694507	131.020000	4.373555	0.000133	1.1
412	-0.694507	132.020000	4.344973	0.000288	1.0
413	-0.694507	132.010000	4.345257	0.000153	1.1
414	-0.694507	133.010000	4.317043	0.000131	1.0
415	-0.694507	134.010000	4.289193	0.000151	1.0
416	-0.694507	135.010000	4.261700	0.000131	1.0
417	-0.694507	136.010000	4.234557	0.000265	1.0
418	-0.694507	137.010000	4.207757	0.000132	1.0
419	-0.694507	138.010000	4.181295	0.000151	1.0
420	-0.694507	139.010000	4.155164	0.000132	1.0
421	-0.694507	140.010000	4.129357	0.000149	1.0
422	-0.694507	141.010000	4.103869	0.000289	1.0
423	-0.694507	142.010000	4.078693	0.000151	1.1
424	-0.694507	143.010000	4.053825	0.000132	1.0
425	-0.694507	144.010000	4.029257	0.000149	1.1
426	-0.694507	145.010000	4.004986	0.000133	1.0
427	-0.694507	146.010000	3.981006	0.000147	1.0
428	-0.694507	147.010000	3.957311	0.000290	1.0
429	-0.694507	148.010000	3.933896	0.000149	1.1
430	-0.694507	149.010000	3.910757	0.000133	1.0
431	-0.694507	150.010000	3.887888	0.000147	1.1
432	-0.694507	151.010000	3.865286	0.000133	1.1
