1:ItNr	2:Metric	3a:Time	3b:StepSize	4:||Gradient||	Time[ms]
0	-0.672725	0.000000	24.538569	0.017171	23.6
1	-0.679096	0.000000	24.538569	0.017180	2.4
2	-0.684494	0.000000	24.538569	0.013412	3.2
3	-0.687541	0.000000	24.538569	0.011023	3.4
4	-0.689285	0.000000	24.538569	0.008540	2.6
5	-0.690171	0.000000	24.538569	0.006719	3.4
6	-0.690522	0.000000	24.538569	0.005202	3.1
7	-0.690607	0.000000	24.538569	0.004220	3.3
8	-0.690570	0.000000	24.538569	0.003597	3.4
9	-0.690567	0.000000	24.538569	0.003267	3.5
10	-0.690480	0.000000	24.538569	0.002890	2.7
11	-0.690383	0.000000	24.538569	0.002654	2.9
12	-0.690248	0.000000	24.538569	0.002388	3.2
13	-0.690022	0.000000	24.538569	0.002201	2.0
14	-0.689825	0.000000	24.538569	0.002130	3.1
15	-0.689692	0.000000	24.538569	0.001982	3.4
16	-0.689564	0.000000	24.538569	0.002119	3.3
17	-0.689388	0.000000	24.538569	0.002009	3.0
18	-0.689199	0.000000	24.538569	0.001978	2.8
19	-0.689102	0.000000	24.538569	0.001920	2.1
20	-0.688963	0.000000	24.538569	0.001757	2.6
21	-0.688848	0.000000	24.538569	0.001771	2.2
22	-0.688732	0.000000	24.538569	0.001691	3.0
23	-0.688631	0.000000	24.538569	0.001559	2.7
24	-0.688545	0.000000	24.538569	0.001610	2.7
25	-0.688479	0.000000	24.538569	0.001488	2.2
26	-0.688407	0.000000	24.538569	0.001396	3.3
27	-0.688350	0.000000	24.538569	0.001337	2.5
28	-0.688291	0.000000	24.538569	0.001275	3.0
29	-0.688267	0.000000	24.538569	0.001143	2.4
30	-0.688277	0.000000	24.538569	0.001083	1.9
31	-0.688295	0.000000	24.538569	0.000980	2.4
32	-0.688310	0.000000	24.538569	0.000915	3.1
33	-0.688333	0.000000	24.538569	0.000917	2.7
34	-0.688367	0.000000	24.538569	0.000935	2.9
35	-0.688391	0.000000	24.538569	0.000841	3.0
36	-0.688384	0.000000	24.538569	0.000767	2.1
37	-0.688404	0.000000	24.538569	0.000688	2.0
38	-0.688423	0.000000	24.538569	0.000616	2.0
39	-0.688460	0.000000	24.538569	0.000572	3.3
40	-0.688516	0.000000	24.538569	0.000519	1.9
41	-0.688552	0.000000	24.538569	0.000467	3.1
42	-0.688579	0.000000	24.538569	0.000437	3.3
43	-0.688625	0.000000	24.538569	0.000426	3.3
44	-0.688642	0.000000	24.538569	0.000377	3.3
45	-0.688640	0.000000	24.538569	0.000349	3.2
46	-0.688648	0.000000	24.538569	0.000355	3.2
47	-0.688646	0.000000	24.538569	0.000358	3.1
48	-0.688645	0.000000	24.538569	0.000328	3.2
49	-0.688644	0.000000	24.538569	0.000301	2.0
50	-0.688652	0.000000	24.538569	0.000265	3.0
51	-0.688650	0.000000	24.538569	0.000236	3.3
52	-0.688639	0.000000	24.538569	0.000213	3.0
53	-0.688628	0.000000	24.538569	0.000183	2.9
54	-0.688627	0.000000	24.538569	0.000169	2.4
55	-0.688616	0.000000	24.538569	0.000172	3.0
56	-0.688615	0.000000	24.538569	0.000148	3.4
57	-0.688614	0.000000	24.538569	0.000139	2.0
58	-0.688632	0.000000	24.538569	0.000120	3.2
59	-0.688631	0.000000	24.538569	0.000118	2.5
60	-0.688630	0.000000	24.538569	0.000090	2.5
61	-0.688629	0.000000	24.538569	0.000078	3.4
62	-0.688629	0.000000	24.538569	0.000070	3.4
63	-0.688628	0.000000	24.538569	0.000063	2.2
64	-0.688628	0.000000	24.538569	0.000057	3.2
65	-0.688627	0.000000	24.538569	0.000076	2.0
66	-0.688627	0.000000	24.538569	0.000060	2.0
67	-0.688627	0.000000	24.538569	0.000095	3.5
68	-0.688626	0.000000	24.538569	0.000085	2.0
69	-0.688625	0.000000	24.538569	0.000089	2.7
70	-0.688624	0.000000	24.538569	0.000085	2.6
71	-0.688623	0.000000	24.538569	0.000080	3.0
72	-0.688632	0.000000	24.538569	0.000044	2.4
73	-0.688631	0.000000	24.538569	0.000039	2.8
74	-0.688631	0.000000	24.538569	0.000034	2.2
75	-0.688631	0.000000	24.538569	0.000031	3.0
76	-0.688630	0.000000	24.538569	0.000028	2.8
77	-0.688630	0.000000	24.538569	0.000025	2.8
78	-0.688630	0.000000	24.538569	0.000023	2.7
79	-0.688639	0.000000	24.538569	0.000021	3.4
80	-0.688639	0.000000	24.538569	0.000019	3.1
81	-0.688639	0.000000	24.538569	0.000017	2.2
82	-0.688648	0.000000	24.538569	0.000015	3.0
83	-0.688648	0.000000	24.538569	0.000016	2.7
84	-0.688648	0.000000	24.538569	0.000014	2.8
85	-0.688648	0.000000	24.538569	0.000013	3.4
86	-0.688648	0.000000	24.538569	0.000012	3.2
87	-0.688648	0.000000	24.538569	0.000011	2.5
88	-0.688648	0.000000	24.538569	0.000010	3.1
89	-0.688647	0.000000	24.538569	0.000009	1.9
90	-0.688647	0.000000	24.538569	0.000009	3.1
91	-0.688647	0.000000	24.538569	0.000008	3.5
92	-0.688647	0.000000	24.538569	0.000008	3.1
93	-0.688647	0.000000	24.538569	0.000007	3.0
94	-0.688647	0.000000	24.538569	0.000006	3.2
95	-0.688647	0.000000	24.538569	0.000006	2.8
96	-0.688647	0.000000	24.538569	0.000006	3.1
97	-0.688647	0.000000	24.538569	0.000005	2.0
98	-0.688647	0.000000	24.538569	0.000005	3.2
99	-0.688647	0.000000	24.538569	0.000005	3.1
100	-0.688647	0.000000	24.538569	0.000004	3.2
101	-0.688647	0.000000	24.538569	0.000004	3.1
102	-0.688647	0.000000	24.538569	0.000004	2.1
103	-0.688657	0.000000	24.538569	0.000003	2.5
104	-0.688657	0.000000	24.538569	0.000003	2.0
105	-0.688657	0.000000	24.538569	0.000003	3.3
106	-0.688657	0.000000	24.538569	0.000003	3.1
107	-0.688666	0.000000	24.538569	0.000003	3.2
108	-0.688666	0.000000	24.538569	0.000002	3.1
109	-0.688666	0.000000	24.538569	0.000002	2.1
110	-0.688666	0.000000	24.538569	0.000002	2.0
111	-0.688666	0.000000	24.538569	0.000002	2.4
112	-0.688666	0.000000	24.538569	0.000002	3.3
113	-0.688666	0.000000	24.538569	0.000002	3.4
114	-0.688666	0.000000	24.538569	0.000002	2.2
115	-0.688666	0.000000	24.538569	0.000001	2.0
116	-0.688666	0.000000	24.538569	0.000001	2.4
117	-0.688666	0.000000	24.538569	0.000001	3.0
118	-0.688666	0.000000	24.538569	0.000001	2.6
119	-0.688666	0.000000	24.538569	0.000001	3.1
120	-0.688666	0.000000	24.538569	0.000001	2.0
121	-0.688666	0.000000	24.538569	0.000001	2.7
122	-0.688666	0.000000	24.538569	0.000001	2.5
123	-0.688666	0.000000	24.538569	0.000001	3.3
124	-0.688666	0.000000	24.538569	0.000001	3.1
125	-0.688666	0.000000	24.538569	0.000001	3.1
126	-0.688666	0.000000	24.538569	0.000001	2.8
127	-0.688666	0.000000	24.538569	0.000001	2.3
128	-0.688666	0.000000	24.538569	0.000001	2.0
129	-0.688666	0.000000	24.538569	0.000001	3.1
130	-0.688666	0.000000	24.538569	0.000001	2.2
131	-0.688666	0.000000	24.538569	0.000001	3.1
132	-0.688666	0.000000	24.538569	0.000000	3.3
133	-0.688666	0.000000	24.538569	0.000000	3.2
134	-0.688666	0.000000	24.538569	0.000000	2.5
135	-0.688666	0.000000	24.538569	0.000000	2.0
136	-0.688666	0.000000	24.538569	0.000000	2.5
137	-0.688666	0.000000	24.538569	0.000000	3.1
138	-0.688666	0.000000	24.538569	0.000000	2.6
139	-0.688666	0.000000	24.538569	0.000000	3.3
140	-0.688666	0.000000	24.538569	0.000000	2.0
141	-0.688666	0.000000	24.538569	0.000000	2.7
142	-0.688666	0.000000	24.538569	0.000000	2.8
143	-0.688666	0.000000	24.538569	0.000000	3.1
144	-0.688666	0.000000	24.538569	0.000000	3.2
145	-0.688666	0.000000	24.538569	0.000000	3.2
146	-0.688666	0.000000	24.538569	0.000000	2.4
147	-0.688666	0.000000	24.538569	0.000000	3.5
148	-0.688666	0.000000	24.538569	0.000000	3.5
149	-0.688666	0.000000	24.538569	0.000000	2.8
150	-0.688666	0.000000	24.538569	0.000000	2.7
151	-0.688666	0.000000	24.538569	0.000000	2.3
152	-0.688666	0.000000	24.538569	0.000000	2.1
153	-0.688666	0.000000	24.538569	0.000000	2.0
154	-0.688666	0.000000	24.538569	0.000000	2.0
155	-0.688666	0.000000	24.538569	0.000000	2.9
156	-0.688666	0.000000	24.538569	0.000000	3.4
157	-0.688666	0.000000	24.538569	0.000000	3.1
158	-0.688666	0.000000	24.538569	0.000000	2.9
159	-0.688666	0.000000	24.538569	0.000000	3.3
160	-0.688666	0.000000	24.538569	0.000000	2.0
161	-0.688666	0.000000	24.538569	0.000000	3.2
162	-0.688666	0.000000	24.538569	0.000000	3.0
163	-0.688666	0.000000	24.538569	0.000000	2.4
164	-0.688666	0.000000	24.538569	0.000000	2.1
165	-0.688666	0.000000	24.538569	0.000000	3.0
166	-0.688666	0.000000	24.538569	0.000000	2.2
167	-0.688666	0.000000	24.538569	0.000000	2.1
168	-0.688666	0.000000	24.538569	0.000000	3.0
169	-0.688666	0.000000	24.538569	0.000000	2.2
170	-0.688666	0.000000	24.538569	0.000000	3.1
171	-0.688666	0.000000	24.538569	0.000000	2.7
172	-0.688666	0.000000	24.538569	0.000000	2.5
173	-0.688666	0.000000	24.538569	0.000000	2.2
174	-0.688666	0.000000	24.538569	0.000000	2.0
175	-0.688666	0.000000	24.538569	0.000000	3.2
176	-0.688666	0.000000	24.538569	0.000000	2.0
177	-0.688666	0.000000	24.538569	0.000000	2.1
178	-0.688666	0.000000	24.538569	0.000000	3.5
179	-0.688666	0.000000	24.538569	0.000000	3.4
180	-0.688666	0.000000	24.538569	0.000000	2.0
181	-0.688666	0.000000	24.538569	0.000000	2.7
182	-0.688666	0.000000	24.538569	0.000000	2.9
183	-0.688666	0.000000	24.538569	0.000000	2.6
184	-0.688666	0.000000	24.538569	0.000000	3.3
185	-0.688666	0.000000	24.538569	0.000000	2.7
186	-0.688666	0.000000	24.538569	0.000000	2.9
187	-0.688666	0.000000	24.538569	0.000000	2.5
188	-0.688666	0.000000	24.538569	0.000000	2.7
189	-0.688666	0.000000	24.538569	0.000000	2.4
190	-0.688666	0.000000	24.538569	0.000000	2.0
191	-0.688666	0.000000	24.538569	0.000000	2.6
192	-0.688666	0.000000	24.538569	0.000000	3.1
193	-0.688666	0.000000	24.538569	0.000000	2.8
194	-0.688666	0.000000	24.538569	0.000000	3.3
195	-0.688666	0.000000	24.538569	0.000000	3.2
196	-0.688666	0.000000	24.538569	0.000000	2.8
197	-0.688666	0.000000	24.538569	0.000000	2.1
198	-0.688666	0.000000	24.538569	0.000000	3.1
199	-0.688666	0.000000	24.538569	0.000000	2.0
200	-0.688666	0.000000	24.538569	0.000000	2.4
201	-0.688666	0.000000	24.538569	0.000000	3.4
202	-0.688666	0.000000	24.538569	0.000000	3.3
203	-0.688666	0.000000	24.538569	0.000000	2.7
204	-0.688666	0.000000	24.538569	0.000000	2.6
205	-0.688666	0.000000	24.538569	0.000000	3.1
206	-0.688666	0.000000	24.538569	0.000000	3.4
207	-0.688666	0.000000	24.538569	0.000000	2.7
208	-0.688666	0.000000	24.538569	0.000000	3.1
209	-0.688666	0.000000	24.538569	0.000000	3.3
210	-0.688666	0.000000	24.538569	0.000000	2.3
211	-0.688666	0.000000	24.538569	0.000000	3.4
212	-0.688666	0.000000	24.538569	0.000000	3.1
213	-0.688666	0.000000	24.538569	0.000000	3.1
214	-0.688666	0.000000	24.538569	0.000000	3.3
215	-0.688666	0.000000	24.538569	0.000000	3.0
216	-0.688666	0.000000	24.538569	0.000000	2.7
217	-0.688666	0.000000	24.538569	0.000000	3.4
218	-0.688666	0.000000	24.538569	0.000000	3.0
219	-0.688666	0.000000	24.538569	0.000000	2.5
220	-0.688666	0.000000	24.538569	0.000000	2.5
221	-0.688666	0.000000	24.538569	0.000000	3.4
222	-0.688666	0.000000	24.538569	0.000000	2.1
223	-0.688666	0.000000	24.538569	0.000000	2.1
224	-0.688666	0.000000	24.538569	0.000000	3.1
225	-0.688666	0.000000	24.538569	0.000000	3.2
226	-0.688666	0.000000	24.538569	0.000000	2.0
227	-0.688666	0.000000	24.538569	0.000000	2.3
228	-0.688666	0.000000	24.538569	0.000000	2.1
229	-0.688666	0.000000	24.538569	0.000000	2.5
230	-0.688666	0.000000	24.538569	0.000000	3.2
231	-0.688666	0.000000	24.538569	0.000000	2.5
232	-0.688666	0.000000	24.538569	0.000000	2.1
233	-0.688666	0.000000	24.538569	0.000000	2.9
234	-0.688666	0.000000	24.538569	0.000000	3.3
235	-0.688666	0.000000	24.538569	0.000000	2.2
236	-0.688666	0.000000	24.538569	0.000000	3.1
237	-0.688666	0.000000	24.538569	0.000000	3.4
238	-0.688666	0.000000	24.538569	0.000000	3.3
239	-0.688666	0.000000	24.538569	0.000000	3.1
240	-0.688666	0.000000	24.538569	0.000000	3.2
241	-0.688666	0.000000	24.538569	0.000000	2.6
242	-0.688666	0.000000	24.538569	0.000000	3.2
243	-0.688666	0.000000	24.538569	0.000000	2.8
244	-0.688666	0.000000	24.538569	0.000000	2.1
245	-0.688666	0.000000	24.538569	0.000000	2.4
246	-0.688666	0.000000	24.538569	0.000000	3.1
247	-0.688666	0.000000	24.538569	0.000000	3.2
248	-0.688666	0.000000	24.538569	0.000000	2.9
249	-0.688666	0.000000	24.538569	0.000000	3.2
250	-0.688666	0.000000	24.538569	0.000000	2.6
251	-0.688666	0.000000	24.538569	0.000000	3.1
252	-0.688666	0.000000	24.538569	0.000000	2.9
253	-0.688666	0.000000	24.538569	0.000000	2.3
254	-0.688666	0.000000	24.538569	0.000000	2.5
255	-0.688666	0.000000	24.538569	0.000000	3.2
256	-0.688666	0.000000	24.538569	0.000000	3.0
257	-0.688666	0.000000	24.538569	0.000000	3.1
258	-0.688666	0.000000	24.538569	0.000000	3.3
259	-0.688666	0.000000	24.538569	0.000000	2.1
260	-0.688666	0.000000	24.538569	0.000000	3.3
261	-0.688666	0.000000	24.538569	0.000000	2.8
262	-0.688666	0.000000	24.538569	0.000000	2.2
263	-0.688666	0.000000	24.538569	0.000000	3.2
264	-0.688666	0.000000	24.538569	0.000000	3.1
265	-0.688666	0.000000	24.538569	0.000000	2.0
266	-0.688666	0.000000	24.538569	0.000000	3.1
267	-0.688666	0.000000	24.538569	0.000000	2.4
268	-0.688666	0.000000	24.538569	0.000000	2.9
269	-0.688666	0.000000	24.538569	0.000000	3.3
270	-0.688666	0.000000	24.538569	0.000000	3.2
271	-0.688666	0.000000	24.538569	0.000000	3.3
272	-0.688666	0.000000	24.538569	0.000000	3.2
273	-0.688666	0.000000	24.538569	0.000000	2.3
274	-0.688666	0.000000	24.538569	0.000000	2.1
275	-0.688666	0.000000	24.538569	0.000000	2.0
276	-0.688666	0.000000	24.538569	0.000000	2.5
277	-0.688666	0.000000	24.538569	0.000000	3.4
278	-0.688666	0.000000	24.538569	0.000000	3.4
279	-0.688666	0.000000	24.538569	0.000000	3.3
280	-0.688666	0.000000	24.538569	0.000000	2.8
281	-0.688666	0.000000	24.538569	0.000000	3.3
282	-0.688666	0.000000	24.538569	0.000000	3.0
283	-0.688666	0.000000	24.538569	0.000000	2.4
284	-0.688666	0.000000	24.538569	0.000000	3.1
285	-0.688666	0.000000	24.538569	0.000000	2.9
286	-0.688666	0.000000	24.538569	0.000000	3.1
287	-0.688666	0.000000	24.538569	0.000000	2.0
288	-0.688666	0.000000	24.538569	0.000000	2.6
289	-0.688666	0.000000	24.538569	0.000000	3.1
290	-0.688666	0.000000	24.538569	0.000000	3.1
291	-0.688666	0.000000	24.538569	0.000000	3.2
292	-0.688666	0.000000	24.538569	0.000000	2.0
293	-0.688666	0.000000	24.538569	0.000000	2.0
294	-0.688666	0.000000	24.538569	0.000000	3.2
295	-0.688666	0.000000	24.538569	0.000000	2.7
296	-0.688666	0.000000	24.538569	0.000000	3.2
297	-0.688666	0.000000	24.538569	0.000000	2.0
298	-0.688666	0.000000	24.538569	0.000000	3.3
299	-0.688666	0.000000	24.538569	0.000000	3.1
300	-0.688666	0.000000	24.538569	0.000000	2.4
301	-0.688666	0.000000	24.538569	0.000000	3.3
302	-0.688666	0.000000	24.538569	0.000000	3.3
303	-0.688666	0.000000	24.538569	0.000000	3.2
304	-0.688666	0.000000	24.538569	0.000000	3.3
305	-0.688666	0.000000	24.538569	0.000000	2.6
306	-0.688666	0.000000	24.538569	0.000000	3.2
307	-0.688666	0.000000	24.538569	0.000000	3.2
308	-0.688666	0.000000	24.538569	0.000000	2.0
309	-0.688666	0.000000	24.538569	0.000000	2.6
310	-0.688666	0.000000	24.538569	0.000000	3.2
311	-0.688666	0.000000	24.538569	0.000000	3.2
312	-0.688666	0.000000	24.538569	0.000000	2.9
313	-0.688666	0.000000	24.538569	0.000000	2.3
314	-0.688666	0.000000	24.538569	0.000000	3.4
315	-0.688666	0.000000	24.538569	0.000000	3.4
316	-0.688666	0.000000	24.538569	0.000000	2.2
317	-0.688666	0.000000	24.538569	0.000000	2.0
318	-0.688666	0.000000	24.538569	0.000000	3.0
319	-0.688666	0.000000	24.538569	0.000000	2.0
320	-0.688666	0.000000	24.538569	0.000000	2.7
321	-0.688666	0.000000	24.538569	0.000000	3.4
322	-0.688666	0.000000	24.538569	0.000000	2.7
323	-0.688666	0.000000	24.538569	0.000000	3.2
324	-0.688666	0.000000	24.538569	0.000000	2.9
325	-0.688666	0.000000	24.538569	0.000000	2.6
326	-0.688666	0.000000	24.538569	0.000000	2.1
327	-0.688666	0.000000	24.538569	0.000000	3.3
328	-0.688666	0.000000	24.538569	0.000000	2.9
329	-0.688666	0.000000	24.538569	0.000000	2.1
330	-0.688666	0.000000	24.538569	0.000000	2.4
331	-0.688666	0.000000	24.538569	0.000000	3.3
332	-0.688666	0.000000	24.538569	0.000000	3.4
333	-0.688666	0.000000	24.538569	0.000000	3.3
334	-0.688666	0.000000	24.538569	0.000000	3.3
335	-0.688666	0.000000	24.538569	0.000000	3.2
336	-0.688666	0.000000	24.538569	0.000000	3.1
337	-0.688666	0.000000	24.538569	0.000000	3.5
338	-0.688666	0.000000	24.538569	0.000000	3.0
339	-0.688666	0.000000	24.538569	0.000000	3.3
340	-0.688666	0.000000	24.538569	0.000000	2.3
341	-0.688666	0.000000	24.538569	0.000000	2.6
342	-0.688666	0.000000	24.538569	0.000000	3.2
343	-0.688666	0.000000	24.538569	0.000000	3.1
344	-0.688666	0.000000	24.538569	0.000000	2.7
345	-0.688666	0.000000	24.538569	0.000000	2.1
346	-0.688666	0.000000	24.538569	0.000000	2.5
347	-0.688666	0.000000	24.538569	0.000000	3.3
348	-0.688666	0.000000	24.538569	0.000000	2.0
349	-0.688666	0.000000	24.538569	0.000000	3.4
350	-0.688666	0.000000	24.538569	0.000000	3.2
351	-0.688666	0.000000	24.538569	0.000000	2.0
352	-0.688666	0.000000	24.538569	0.000000	1.9
353	-0.688666	0.000000	24.538569	0.000000	3.2
354	-0.688666	0.000000	24.538569	0.000000	3.0
355	-0.688666	0.000000	24.538569	0.000000	2.0
356	-0.688666	0.000000	24.538569	0.000000	2.6
357	-0.688666	0.000000	24.538569	0.000000	3.2
358	-0.688666	0.000000	24.538569	0.000000	2.5
359	-0.688666	0.000000	24.538569	0.000000	3.2
360	-0.688666	0.000000	24.538569	0.000000	3.2
361	-0.688666	0.000000	24.538569	0.000000	3.2
362	-0.688666	0.000000	24.538569	0.000000	2.1
363	-0.688666	0.000000	24.538569	0.000000	2.4
364	-0.688666	0.000000	24.538569	0.000000	2.4
365	-0.688666	0.000000	24.538569	0.000000	3.3
366	-0.688666	0.000000	24.538569	0.000000	3.1
367	-0.688666	0.000000	24.538569	0.000000	2.3
368	-0.688666	0.000000	24.538569	0.000000	2.4
369	-0.688666	0.000000	24.538569	0.000000	3.3
370	-0.688666	0.000000	24.538569	0.000000	2.4
371	-0.688666	0.000000	24.538569	0.000000	3.3
372	-0.688666	0.000000	24.538569	0.000000	3.3
373	-0.688666	0.000000	24.538569	0.000000	2.2
374	-0.688666	0.000000	24.538569	0.000000	2.4
375	-0.688666	0.000000	24.538569	0.000000	3.2
376	-0.688666	0.000000	24.538569	0.000000	2.0
377	-0.688666	0.000000	24.538569	0.000000	2.5
378	-0.688666	0.000000	24.538569	0.000000	3.4
379	-0.688666	0.000000	24.538569	0.000000	3.1
380	-0.688666	0.000000	24.538569	0.000000	2.8
381	-0.688666	0.000000	24.538569	0.000000	2.0
382	-0.688666	0.000000	24.538569	0.000000	2.3
383	-0.688666	0.000000	24.538569	0.000000	2.3
384	-0.688666	0.000000	24.538569	0.000000	3.1
385	-0.688666	0.000000	24.538569	0.000000	3.2
386	-0.688666	0.000000	24.538569	0.000000	2.4
387	-0.688666	0.000000	24.538569	0.000000	3.2
388	-0.688666	0.000000	24.538569	0.000000	3.1
389	-0.688666	0.000000	24.538569	0.000000	3.2
390	-0.688666	0.000000	24.538569	0.000000	3.0
391	-0.688666	0.000000	24.538569	0.000000	3.0
392	-0.688666	0.000000	24.538569	0.000000	3.2
393	-0.688666	0.000000	24.538569	0.000000	3.2
394	-0.688666	0.000000	24.538569	0.000000	2.7
395	-0.688666	0.000000	24.538569	0.000000	2.4
396	-0.688666	0.000000	24.538569	0.000000	3.0
397	-0.688666	0.000000	24.538569	0.000000	3.1
398	-0.688666	0.000000	24.538569	0.000000	3.0
399	-0.688666	0.000000	24.538569	0.000000	2.4
400	-0.688666	0.000000	24.538569	0.000000	2.4
401	-0.688666	0.000000	24.538569	0.000000	2.1
402	-0.688666	0.000000	24.538569	0.000000	2.6
403	-0.688666	0.000000	24.538569	0.000000	3.5
404	-0.688666	0.000000	24.538569	0.000000	3.1
405	-0.688666	0.000000	24.538569	0.000000	2.9
406	-0.688666	0.000000	24.538569	0.000000	3.3
407	-0.688666	0.000000	24.538569	0.000000	2.7
408	-0.688666	0.000000	24.538569	0.000000	3.1
409	-0.688666	0.000000	24.538569	0.000000	2.5
410	-0.688666	0.000000	24.538569	0.000000	3.2
411	-0.688666	0.000000	24.538569	0.000000	3.1
412	-0.688666	0.000000	24.538569	0.000000	3.0
413	-0.688666	0.000000	24.538569	0.000000	2.4
414	-0.688666	0.000000	24.538569	0.000000	2.0
415	-0.688666	0.000000	24.538569	0.000000	3.1
416	-0.688666	0.000000	24.538569	0.000000	2.1
417	-0.688666	0.000000	24.538569	0.000000	2.8
418	-0.688666	0.000000	24.538569	0.000000	2.9
419	-0.688666	0.000000	24.538569	0.000000	3.3
420	-0.688666	0.000000	24.538569	0.000000	3.3
421	-0.688666	0.000000	24.538569	0.000000	3.3
422	-0.688666	0.000000	24.538569	0.000000	3.2
423	-0.688666	0.000000	24.538569	0.000000	3.5
424	-0.688666	0.000000	24.538569	0.000000	2.1
425	-0.688666	0.000000	24.538569	0.000000	2.7
426	-0.688666	0.000000	24.538569	0.000000	2.5
427	-0.688666	0.000000	24.538569	0.000000	3.1
428	-0.688666	0.000000	24.538569	0.000000	3.4
429	-0.688666	0.000000	24.538569	0.000000	2.8
430	-0.688666	0.000000	24.538569	0.000000	2.9
431	-0.688666	0.000000	24.538569	0.000000	2.7
432	-0.688666	0.000000	24.538569	0.000000	3.3
433	-0.688666	0.000000	24.538569	0.000000	2.1
434	-0.688666	0.000000	24.538569	0.000000	2.4
