1:ItNr	2:Metric	3a:Time	3b:StepSize	4:||Gradient||	Time[ms]
0	-0.477761	0.000000	31.660370	0.012797	17.4
1	-0.482902	0.000000	31.660370	0.012566	6.5
2	-0.487777	0.000000	31.660370	0.011794	4.8
3	-0.491944	0.000000	31.660370	0.010546	5.8
4	-0.495333	0.000000	31.660370	0.009843	5.3
5	-0.498348	0.000000	31.660370	0.009803	4.3
6	-0.501809	0.000000	31.660370	0.011244	4.7
7	-0.506105	0.000000	31.660370	0.013281	5.7
8	-0.512358	0.000000	31.660370	0.016293	4.7
9	-0.521574	0.000000	31.660370	0.019422	7.0
10	-0.534738	0.000000	31.660370	0.023468	3.9
11	-0.553778	0.000000	31.660370	0.027287	5.3
12	-0.571041	0.000000	31.660370	0.025729	4.3
13	-0.584515	0.000000	31.660370	0.021909	4.7
14	-0.594679	0.000000	31.660370	0.019510	4.9
15	-0.602617	0.000000	31.660370	0.017614	5.1
16	-0.609316	0.000000	31.660370	0.016272	5.5
17	-0.617586	0.000000	31.660370	0.015773	5.9
18	-0.625473	0.000000	31.660370	0.015784	4.8
19	-0.632942	0.000000	31.660370	0.013966	6.0
20	-0.639037	0.000000	31.660370	0.013368	3.8
21	-0.643842	0.000000	31.660370	0.010480	4.8
22	-0.647230	0.000000	31.660370	0.009871	4.5
23	-0.650337	0.000000	31.660370	0.009477	3.9
24	-0.653056	0.000000	31.660370	0.009233	4.3
25	-0.655726	0.000000	31.660370	0.008549	4.9
26	-0.657984	0.000000	31.660370	0.008345	3.9
27	-0.660125	0.000000	31.660370	0.007831	4.7
28	-0.662037	0.000000	31.660370	0.007598	4.4
29	-0.663786	0.000000	31.660370	0.007051	4.5
30	-0.665326	0.000000	31.660370	0.006733	5.0
31	-0.666727	0.000000	31.660370	0.006421	4.4
32	-0.668006	0.000000	31.660370	0.006169	4.0
33	-0.669191	0.000000	31.660370	0.005979	6.8
34	-0.670308	0.000000	31.660370	0.005829	3.7
35	-0.671371	0.000000	31.660370	0.005684	4.4
36	-0.672380	0.000000	31.660370	0.005532	5.0
37	-0.673336	0.000000	31.660370	0.005379	4.9
38	-0.674240	0.000000	31.660370	0.005243	4.6
39	-0.675100	0.000000	31.660370	0.005118	5.2
40	-0.675918	0.000000	31.660370	0.004970	4.9
41	-0.676686	0.000000	31.660370	0.004798	3.9
42	-0.677401	0.000000	31.660370	0.004611	3.9
43	-0.678060	0.000000	31.660370	0.004405	3.7
44	-0.678658	0.000000	31.660370	0.004170	3.9
45	-0.679192	0.000000	31.660370	0.003907	6.6
46	-0.679654	0.000000	31.660370	0.003580	4.3
47	-0.680044	0.000000	31.660370	0.003310	5.6
48	-0.680377	0.000000	31.660370	0.003053	4.5
49	-0.680661	0.000000	31.660370	0.002821	4.9
50	-0.680914	0.000000	31.660370	0.002824	3.5
51	-0.681190	0.000000	31.660370	0.003481	3.6
52	-0.681555	0.000000	31.660370	0.003134	4.4
53	-0.681850	0.000000	31.660370	0.002827	5.4
54	-0.682081	0.000000	31.660370	0.002258	8.1
55	-0.682271	0.000000	31.660370	0.002792	4.5
56	-0.683113	0.000000	31.660370	0.002499	2.1
57	-0.683300	0.000000	31.660370	0.002237	2.3
58	-0.683449	0.000000	31.660370	0.001961	2.0
59	-0.683564	0.000000	31.660370	0.001761	1.9
60	-0.684268	0.000000	31.660370	0.001620	2.1
61	-0.684346	0.000000	31.660370	0.001447	2.8
62	-0.684409	0.000000	31.660370	0.001320	2.1
63	-0.684462	0.000000	31.660370	0.001209	2.7
64	-0.684506	0.000000	31.660370	0.001112	2.7
65	-0.684544	0.000000	31.660370	0.001028	1.6
66	-0.684576	0.000000	31.660370	0.000958	2.1
67	-0.685215	0.000000	31.660370	0.000793	2.3
68	-0.685234	0.000000	31.660370	0.000747	1.4
69	-0.685864	0.000000	31.660370	0.000728	103.3
70	-0.685879	0.000000	31.660370	0.000680	2.8
71	-0.685891	0.000000	31.660370	0.000688	3.3
72	-0.685903	0.000000	31.660370	0.000639	2.8
73	-0.685915	0.000000	31.660370	0.000652	2.0
74	-0.685924	0.000000	31.660370	0.000605	2.6
75	-0.685935	0.000000	31.660370	0.000575	2.0
76	-0.685943	0.000000	31.660370	0.000621	2.5
77	-0.685952	0.000000	31.660370	0.000552	2.2
78	-0.685961	0.000000	31.660370	0.000590	2.3
79	-0.685967	0.000000	31.660370	0.000973	2.7
80	-0.686609	0.000000	31.660370	0.000877	2.5
81	-0.686632	0.000000	31.660370	0.000795	2.4
82	-0.686650	0.000000	31.660370	0.000644	2.4
83	-0.687281	0.000000	31.660370	0.000804	2.5
84	-0.687300	0.000000	31.660370	0.000745	11.9
85	-0.687317	0.000000	31.660370	0.000689	6.9
86	-0.687332	0.000000	31.660370	0.000645	5.0
87	-0.687345	0.000000	31.660370	0.000608	5.4
88	-0.687356	0.000000	31.660370	0.000576	7.5
89	-0.687366	0.000000	31.660370	0.000548	6.4
90	-0.687990	0.000000	31.660370	0.000524	4.7
91	-0.687999	0.000000	31.660370	0.000541	7.4
92	-0.688008	0.000000	31.660370	0.000551	3.1
93	-0.688018	0.000000	31.660370	0.000626	3.5
94	-0.688031	0.000000	31.660370	0.000599	4.9
95	-0.688042	0.000000	31.660370	0.000576	6.9
96	-0.688667	0.000000	31.660370	0.000556	6.8
97	-0.688677	0.000000	31.660370	0.000537	9.6
98	-0.688686	0.000000	31.660370	0.000524	25.6
99	-0.688695	0.000000	31.660370	0.000504	9.4
100	-0.688702	0.000000	31.660370	0.000488	10.5
101	-0.688710	0.000000	31.660370	0.000473	1.8
102	-0.688717	0.000000	31.660370	0.000459	2.3
103	-0.689339	0.000000	31.660370	0.000446	4.8
104	-0.689346	0.000000	31.660370	0.000432	5.2
105	-0.689352	0.000000	31.660370	0.000419	15.7
106	-0.689357	0.000000	31.660370	0.000406	4.4
107	-0.689979	0.000000	31.660370	0.000370	5.5
108	-0.689983	0.000000	31.660370	0.000337	6.2
109	-0.689986	0.000000	31.660370	0.000326	9.7
110	-0.689990	0.000000	31.660370	0.000326	6.6
111	-0.689993	0.000000	31.660370	0.000309	6.8
112	-0.689996	0.000000	31.660370	0.000304	6.5
113	-0.689999	0.000000	31.660370	0.000295	57.8
114	-0.690001	0.000000	31.660370	0.000286	2.0
115	-0.690004	0.000000	31.660370	0.000278	1.8
116	-0.690624	0.000000	31.660370	0.000269	1.7
117	-0.690626	0.000000	31.660370	0.000261	4.0
118	-0.690628	0.000000	31.660370	0.000254	4.0
119	-0.690630	0.000000	31.660370	0.000246	5.2
120	-0.690632	0.000000	31.660370	0.000239	12.7
121	-0.690634	0.000000	31.660370	0.000235	8.8
122	-0.690635	0.000000	31.660370	0.000231	7.1
123	-0.690637	0.000000	31.660370	0.000223	9.5
124	-0.690639	0.000000	31.660370	0.000217	5.9
125	-0.690640	0.000000	31.660370	0.000210	6.8
126	-0.691259	0.000000	31.660370	0.000204	4.5
127	-0.691260	0.000000	31.660370	0.000183	4.6
128	-0.691261	0.000000	31.660370	0.000178	3.6
129	-0.691262	0.000000	31.660370	0.000172	3.8
130	-0.691263	0.000000	31.660370	0.000167	3.7
131	-0.691264	0.000000	31.660370	0.000162	3.2
132	-0.691265	0.000000	31.660370	0.000157	5.2
133	-0.691265	0.000000	31.660370	0.000132	7.3
134	-0.691266	0.000000	31.660370	0.000121	3.9
135	-0.691266	0.000000	31.660370	0.000112	4.2
136	-0.691267	0.000000	31.660370	0.000105	25.1
137	-0.691267	0.000000	31.660370	0.000099	7.3
138	-0.691267	0.000000	31.660370	0.000094	8.4
139	-0.691268	0.000000	31.660370	0.000090	5.8
140	-0.691268	0.000000	31.660370	0.000086	8.4
141	-0.691268	0.000000	31.660370	0.000083	4.4
142	-0.691268	0.000000	31.660370	0.000080	4.4
143	-0.691269	0.000000	31.660370	0.000077	4.7
144	-0.691269	0.000000	31.660370	0.000075	19.5
145	-0.691269	0.000000	31.660370	0.000072	5.9
146	-0.691269	0.000000	31.660370	0.000070	5.5
147	-0.691269	0.000000	31.660370	0.000068	1.8
148	-0.691269	0.000000	31.660370	0.000059	1.6
149	-0.691270	0.000000	31.660370	0.000058	1.5
150	-0.691270	0.000000	31.660370	0.000056	2.2
151	-0.691270	0.000000	31.660370	0.000054	4.9
152	-0.691270	0.000000	31.660370	0.000053	7.4
153	-0.691270	0.000000	31.660370	0.000284	8.1
154	-0.691272	0.000000	31.660370	0.000325	4.5
155	-0.691276	0.000000	31.660370	0.000308	8.6
156	-0.691279	0.000000	31.660370	0.000272	4.7
157	-0.691281	0.000000	31.660370	0.000255	4.4
158	-0.691283	0.000000	31.660370	0.000241	7.1
159	-0.691285	0.000000	31.660370	0.000229	8.3
160	-0.691286	0.000000	31.660370	0.000220	6.1
161	-0.691906	0.000000	31.660370	0.000209	10.3
162	-0.691907	0.000000	31.660370	0.000201	8.6
163	-0.691909	0.000000	31.660370	0.000277	7.3
164	-0.691911	0.000000	31.660370	0.000164	6.2
165	-0.691911	0.000000	31.660370	0.000150	5.0
166	-0.691912	0.000000	31.660370	0.000138	5.8
167	-0.691913	0.000000	31.660370	0.000128	4.6
168	-0.691913	0.000000	31.660370	0.000120	6.2
169	-0.691914	0.000000	31.660370	0.000113	5.0
170	-0.691914	0.000000	31.660370	0.000107	2.8
171	-0.691914	0.000000	31.660370	0.000102	1.1
172	-0.691915	0.000000	31.660370	0.000097	1.5
173	-0.691915	0.000000	31.660370	0.000093	1.4
174	-0.691915	0.000000	31.660370	0.000089	4.0
175	-0.691915	0.000000	31.660370	0.000085	4.8
176	-0.691916	0.000000	31.660370	0.000082	4.0
177	-0.691916	0.000000	31.660370	0.000079	2.9
178	-0.691916	0.000000	31.660370	0.000076	3.7
179	-0.691916	0.000000	31.660370	0.000074	4.2
180	-0.691916	0.000000	31.660370	0.000071	7.0
181	-0.691916	0.000000	31.660370	0.000285	6.8
182	-0.691916	1.000000	30.221262	0.000310	5.9
183	-0.691916	2.000000	28.907294	0.000281	5.0
184	-0.692535	3.000000	27.702823	0.000078	4.6
185	-0.692535	4.000000	26.594710	0.000073	4.0
186	-0.692535	3.990000	26.605353	0.000069	4.7
187	-0.692536	3.980000	26.616003	0.000066	4.9
188	-0.692536	3.970000	26.626662	0.000063	3.7
189	-0.692536	3.960000	26.637330	0.000265	4.0
190	-0.692535	4.960000	25.611239	0.000077	7.8
191	-0.692536	5.960000	24.661267	0.000072	4.0
192	-0.692536	5.950000	24.670418	0.000068	4.3
193	-0.692536	5.940000	24.679575	0.000065	1.8
194	-0.692536	5.930000	24.688740	0.000062	1.0
195	-0.692536	5.920000	24.697911	0.000795	1.1
196	-0.692551	5.910000	24.707089	0.000749	5.4
197	-0.692562	5.900000	24.716274	0.000625	7.1
198	-0.692571	5.890000	24.725465	0.000530	4.3
199	-0.692578	5.880000	24.734664	0.000569	4.0
200	-0.692586	5.870000	24.743869	0.000494	4.1
201	-0.692591	5.860000	24.753081	0.000505	3.7
202	-0.692596	5.850000	24.762300	0.000409	3.7
203	-0.692600	5.840000	24.771526	0.000374	4.7
204	-0.692603	5.830000	24.780759	0.000344	4.8
205	-0.692606	5.820000	24.789998	0.000394	5.1
206	-0.692608	5.810000	24.799245	0.000303	4.2
207	-0.692610	5.800000	24.808498	0.000283	8.4
208	-0.692612	5.790000	24.817759	0.000264	5.8
209	-0.692613	5.780000	24.827026	0.000346	5.3
210	-0.692614	5.770000	24.836300	0.000244	3.7
211	-0.692616	5.760000	24.845581	0.000229	4.3
212	-0.692617	5.750000	24.854870	0.000216	3.6
213	-0.692618	5.740000	24.864165	0.000205	5.2
214	-0.692619	5.730000	24.873467	0.000324	4.0
215	-0.692620	5.720000	24.882775	0.000196	3.8
216	-0.692621	5.710000	24.892091	0.000186	4.8
217	-0.692622	5.700000	24.901414	0.000176	4.4
218	-0.692622	5.690000	24.910744	0.000168	4.2
219	-0.692623	5.680000	24.920081	0.000160	5.4
220	-0.692624	5.670000	24.929425	0.000154	4.9
221	-0.692624	5.660000	24.938776	0.000318	5.4
222	-0.692625	5.650000	24.948134	0.000153	4.1
223	-0.692625	5.640000	24.957498	0.000145	4.6
224	-0.692626	5.630000	24.966870	0.000139	3.9
225	-0.692626	5.620000	24.976249	0.000133	4.9
226	-0.692627	5.610000	24.985635	0.000128	4.1
227	-0.692627	5.600000	24.995029	0.000113	4.3
228	-0.692627	5.590000	25.004429	0.000110	3.9
229	-0.692628	5.580000	25.013836	0.000106	4.0
230	-0.692628	5.570000	25.023250	0.000103	4.1
231	-0.692628	5.560000	25.032672	0.000100	5.1
232	-0.692628	5.550000	25.042100	0.000108	5.8
233	-0.692629	5.540000	25.051536	0.000105	3.9
234	-0.693248	5.530000	25.060979	0.000100	4.4
235	-0.693248	5.520000	25.070428	0.000098	4.7
236	-0.693249	5.510000	25.079885	0.000095	3.8
237	-0.693249	5.500000	25.089349	0.000209	3.7
238	-0.693870	5.490000	25.098821	0.000198	6.5
239	-0.693870	5.480000	25.108299	0.000288	4.3
240	-0.693871	5.470000	25.117785	0.000186	3.8
241	-0.693872	5.460000	25.127277	0.000179	4.9
242	-0.693872	5.450000	25.136777	0.000173	3.5
243	-0.693873	5.440000	25.146284	0.000283	3.7
244	-0.693873	5.430000	25.155799	0.000174	4.3
245	-0.693874	5.420000	25.165320	0.000168	3.1
246	-0.693875	5.410000	25.174849	0.000162	4.5
247	-0.693875	5.400000	25.184385	0.000278	1.4
248	-0.693875	5.390000	25.193928	0.000164	2.1
249	-0.693876	6.390000	24.274106	0.000158	1.4
250	-0.693877	6.380000	24.282972	0.000152	2.0
251	-0.693877	6.370000	24.291844	0.000273	4.0
252	-0.693877	6.360000	24.300722	0.000155	4.5
253	-0.693878	7.360000	23.443856	0.000149	4.6
254	-0.693878	7.350000	23.452126	0.000144	4.2
255	-0.693878	7.340000	23.460401	0.000269	3.6
256	-0.693879	8.340000	22.660796	0.000148	3.6
257	-0.693879	9.340000	21.913901	0.000142	3.8
258	-0.693880	9.330000	21.921126	0.000138	3.4
259	-0.693880	9.320000	21.928356	0.000323	4.1
260	-0.693880	10.320000	21.228217	0.000139	3.1
261	-0.693880	11.320000	20.571403	0.000135	3.1
262	-0.693881	11.310000	20.577770	0.000132	7.1
263	-0.693881	11.300000	20.584141	0.000267	3.8
264	-0.693881	12.300000	19.965999	0.000135	3.9
265	-0.693881	13.300000	19.383900	0.000253	3.4
266	-0.693881	13.290000	19.389553	0.000129	3.2
267	-0.693882	13.280000	19.395209	0.000270	3.1
268	-0.693882	14.280000	18.845458	0.000131	3.9
269	-0.693882	15.280000	18.326013	0.000127	6.4
270	-0.693882	15.270000	18.331066	0.000239	3.4
271	-0.693882	15.260000	18.336121	0.000125	3.2
272	-0.693882	15.250000	18.341180	0.000272	3.3
273	-0.693882	16.250000	17.848799	0.000126	3.6
274	-0.693883	17.250000	17.382164	0.000122	3.9
275	-0.693883	17.240000	17.386709	0.000231	3.4
276	-0.693883	17.230000	17.391257	0.000272	3.3
277	-0.693883	18.230000	16.947942	0.000125	3.7
278	-0.693883	19.230000	16.526666	0.000121	3.5
279	-0.693883	19.220000	16.530775	0.000225	3.5
280	-0.693883	19.210000	16.534886	0.000122	3.3
281	-0.693883	20.210000	16.133651	0.000272	3.7
282	-0.693884	21.210000	15.751428	0.000221	3.6
283	-0.693884	22.210000	15.386896	0.000124	3.2
284	-0.693884	23.210000	15.038855	0.000120	4.1
285	-0.693884	23.200000	15.042257	0.000269	3.5
286	-0.693884	24.200000	14.709464	0.000219	3.2
287	-0.693884	25.200000	14.391077	0.000122	3.5
288	-0.693884	26.200000	14.086181	0.000119	3.3
289	-0.693884	26.190000	14.089166	0.000116	3.3
290	-0.693884	26.180000	14.092153	0.000290	3.2
291	-0.693884	27.180000	13.799663	0.000122	3.8
292	-0.693884	28.180000	13.519068	0.000118	3.4
293	-0.693884	28.170000	13.521817	0.000205	3.0
294	-0.693885	29.170000	13.252297	0.000120	3.0
295	-0.693885	30.170000	12.993312	0.000273	3.2
296	-0.693885	31.170000	12.744255	0.000205	3.3
297	-0.693885	32.170000	12.504566	0.000121	3.5
298	-0.693885	33.170000	12.273726	0.000118	3.3
299	-0.693885	33.160000	12.275993	0.000195	3.3
300	-0.693885	34.160000	12.053440	0.000278	3.3
301	-0.693885	35.160000	11.838813	0.000119	3.5
302	-0.693885	36.160000	11.631696	0.000196	3.3
303	-0.693885	37.160000	11.431702	0.000121	3.3
304	-0.693885	38.160000	11.238468	0.000273	3.0
305	-0.693885	39.160000	11.051658	0.000198	3.0
306	-0.693885	40.160000	10.870957	0.000121	3.4
307	-0.693885	41.160000	10.696071	0.000118	3.4
308	-0.693885	41.150000	10.697792	0.000190	3.6
309	-0.693885	42.150000	10.528389	0.000276	4.0
310	-0.693885	43.150000	10.364267	0.000190	3.3
311	-0.693885	44.150000	10.205184	0.000123	3.4
312	-0.693885	45.150000	10.050911	0.000120	3.1
313	-0.693886	45.140000	10.052431	0.000184	3.2
314	-0.693885	46.140000	9.902707	0.000279	3.1
315	-0.693885	47.140000	9.757378	0.000121	3.7
316	-0.693885	48.140000	9.616253	0.000186	3.7
317	-0.693886	49.140000	9.479153	0.000122	3.2
318	-0.693886	50.140000	9.345906	0.000119	3.4
319	-0.693886	50.130000	9.347220	0.000277	4.1
320	-0.693886	51.130000	9.217631	0.000122	4.0
321	-0.693886	52.130000	9.091587	0.000182	3.5
322	-0.693886	53.130000	8.968943	0.000123	3.3
323	-0.693886	54.130000	8.849564	0.000275	3.2
324	-0.693886	55.130000	8.733321	0.000185	4.1
325	-0.693886	56.130000	8.620093	0.000123	3.6
326	-0.693886	57.130000	8.509763	0.000178	3.2
327	-0.693886	58.130000	8.402221	0.000124	3.4
328	-0.693886	59.130000	8.297364	0.000276	2.9
329	-0.693886	60.130000	8.195091	0.000181	2.7
330	-0.693886	61.130000	8.095309	0.000123	2.0
331	-0.693886	62.130000	7.997928	0.000121	2.6
332	-0.693886	62.120000	7.998890	0.000177	4.0
333	-0.693886	63.120000	7.903801	0.000278	4.0
334	-0.693886	64.120000	7.810946	0.000178	3.9
335	-0.693886	65.120000	7.720248	0.000124	4.0
336	-0.693886	66.120000	7.631632	0.000121	3.7
337	-0.693886	66.110000	7.632508	0.000175	3.8
338	-0.693886	67.110000	7.545883	0.000278	3.9
339	-0.693886	68.110000	7.461203	0.000176	5.1
340	-0.693886	69.110000	7.378402	0.000124	4.0
341	-0.693886	70.110000	7.297418	0.000170	4.1
342	-0.693886	71.110000	7.218193	0.000125	3.7
343	-0.693886	72.110000	7.140670	0.000279	3.8
344	-0.693886	72.100000	7.141437	0.000174	4.2
345	-0.693886	73.100000	7.065545	0.000125	3.1
346	-0.693886	74.100000	6.991249	0.000169	3.8
347	-0.693886	75.100000	6.918499	0.000280	9.2
348	-0.693886	76.100000	6.847248	0.000170	1.9
349	-0.693886	77.100000	6.777449	0.000127	1.7
350	-0.693886	78.100000	6.709059	0.000124	1.8
351	-0.693886	78.090000	6.709736	0.000169	1.6
352	-0.693886	79.090000	6.642699	0.000280	2.4
353	-0.693886	80.090000	6.576988	0.000170	4.0
354	-0.693886	81.090000	6.512565	0.000127	6.8
355	-0.693886	82.090000	6.449391	0.000124	5.8
356	-0.693886	82.080000	6.450017	0.000168	5.2
357	-0.693886	83.080000	6.388045	0.000280	5.1
358	-0.693886	84.080000	6.327253	0.000169	5.9
359	-0.693886	85.080000	6.267607	0.000126	5.9
360	-0.693886	86.080000	6.209075	0.000165	6.7
361	-0.693886	87.080000	6.151626	0.000127	5.2
362	-0.693886	88.080000	6.095231	0.000279	5.8
363	-0.693886	88.070000	6.095789	0.000169	6.1
364	-0.693886	89.070000	6.040408	0.000126	2.1
365	-0.693886	90.070000	5.986025	0.000165	1.9
366	-0.693886	91.070000	5.932611	0.000127	4.0
367	-0.693886	92.070000	5.880143	0.000267	2.1
368	-0.693886	93.070000	5.828594	0.000128	1.8
369	-0.693886	94.070000	5.777942	0.000163	2.2
370	-0.693886	95.070000	5.728162	0.000128	2.3
371	-0.693887	96.070000	5.679233	0.000126	1.2
372	-0.693886	96.060000	5.679718	0.000267	1.2
373	-0.693886	97.060000	5.631609	0.000127	2.4
374	-0.693886	98.060000	5.584308	0.000163	1.3
375	-0.693887	99.060000	5.537796	0.000128	1.1
376	-0.693887	100.060000	5.492052	0.000160	1.1
377	-0.693886	101.060000	5.447057	0.000283	1.6
378	-0.693887	102.060000	5.402793	0.000162	2.3
379	-0.693887	103.060000	5.359244	0.000129	1.6
380	-0.693887	104.060000	5.316390	0.000127	1.3
381	-0.693887	104.050000	5.316815	0.000161	1.1
382	-0.693887	105.050000	5.274635	0.000282	1.5
383	-0.693887	106.050000	5.233119	0.000162	4.3
384	-0.693887	107.050000	5.192251	0.000128	5.2
385	-0.693887	108.050000	5.152017	0.000159	5.8
386	-0.693887	109.050000	5.112401	0.000129	4.6
387	-0.693887	110.050000	5.073390	0.000265	5.2
388	-0.693887	111.050000	5.034970	0.000129	4.2
389	-0.693887	112.050000	4.997127	0.000158	4.1
390	-0.693887	113.050000	4.959849	0.000130	4.6
391	-0.693887	114.050000	4.923123	0.000128	2.9
392	-0.693887	114.040000	4.923488	0.000265	1.9
393	-0.693887	115.040000	4.887296	0.000157	1.4
394	-0.693887	115.030000	4.887655	0.000131	1.6
395	-0.693887	116.030000	4.851987	0.000129	4.9
396	-0.693887	116.020000	4.852341	0.000157	5.4
397	-0.693887	117.020000	4.817184	0.000283	5.9
398	-0.693887	118.020000	4.782533	0.000158	4.3
399	-0.693887	119.020000	4.748377	0.000130	5.2
400	-0.693887	120.020000	4.714705	0.000156	4.0
401	-0.693887	121.020000	4.681508	0.000283	4.2
402	-0.693887	122.020000	4.648775	0.000157	3.4
403	-0.693887	123.020000	4.616496	0.000131	4.5
404	-0.694507	124.020000	4.584663	0.000151	3.7
405	-0.694507	125.020000	4.553265	0.000132	3.3
406	-0.694507	126.020000	4.522295	0.000149	5.8
407	-0.694507	127.020000	4.491743	0.000290	3.9
408	-0.694507	128.020000	4.461601	0.000151	8.2
409	-0.694507	129.020000	4.431861	0.000133	4.6
410	-0.694507	130.020000	4.402515	0.000149	1.1
411	-0.694507	131.020000	4.373555	0.000133	1.1
412	-0.694507	132.020000	4.344973	0.000288	1.4
413	-0.694507	132.010000	4.345257	0.000153	4.2
414	-0.694507	133.010000	4.317043	0.000131	5.7
415	-0.694507	134.010000	4.289193	0.000151	5.0
416	-0.694507	135.010000	4.261700	0.000131	5.0
417	-0.694507	136.010000	4.234557	0.000265	4.4
418	-0.694507	137.010000	4.207757	0.000132	5.7
419	-0.694507	138.010000	4.181295	0.000151	5.4
420	-0.694507	139.010000	4.155164	0.000132	4.9
421	-0.694507	140.010000	4.129357	0.000149	5.4
422	-0.694507	141.010000	4.103869	0.000289	5.6
423	-0.694507	142.010000	4.078693	0.000151	5.4
424	-0.694507	143.010000	4.053825	0.000132	4.5
425	-0.694507	144.010000	4.029257	0.000149	4.8
426	-0.694507	145.010000	4.004986	0.000133	6.9
427	-0.694507	146.010000	3.981006	0.000147	5.3
428	-0.694507	147.010000	3.957311	0.000290	6.6
429	-0.694507	148.010000	3.933896	0.000149	6.4
430	-0.694507	149.010000	3.910757	0.000133	2.3
431	-0.694507	150.010000	3.887888	0.000147	6.2
432	-0.694507	151.010000	3.865286	0.000133	1.3
